0,1,2,3,4,5,6,7,8,9,10,11,12,13,14,15,16,17,18,19,20,21,22,23,24,25,26,27,28,29,30,31,32,33,34,35,36,37,38,39,40,41,42,43,44,45,46,47,48,49,50,51,52,53,54,55,56,57,58,59,60,61,62,63,64,65,66,67,68,69,70,71,72,73,74,75,76,77,78,79,80,81,82,83,84,85,86,87,88,89,90,91,92,93,94,95,96,97,98,99,100,101,102,103,104,105,106,107,108,109,110,111,112,113,114,115,116,117,118,119,120,121,122,123,124,125,126,127,128,129,130,131,132,133,134,135,136,137,138,139,140,141,142,143,144,145,146,147,148,149,150,151,152,153,154,155,156,157,158,159,160,161,162,163,164,165,166,167,168,169,170,171,172,173,174,175,176,177,178,179,180,181,182,183,184,185,186,187,188,189,190,191,192,193,194,195,196,197,198,199,200,201,202,203,204,205,206,207,208,209,210,211,212,213,214,215,216,217,218,219,220,221,222,223,224,225,226,227,228,229,230,231,232,233,234,235,236,237,238,239,240,241,242,243,244,245,246,247,248,249,250,251,252,253,254,255,256,257,258,259,260,261,262,263,264,265,266,267,268,269,270,271,272,273,274,275,276,277,278,279,280,281,282,283,284,285,286,287,288,289,290,291,292,293,294,295,296,297,298,299,300,301,302,303,304,305,306,307,308,309,310,311,312,313,314,315,316,317,318,319,320,321,322,323,324,325,326,327,328,329,330,331,332,333,334,335,336,337,338,339,340,341,342,343,344,345,346,347,348,349,350,351,352,353,354,355,356,357,358,359,360,361,362,363,364,365,366,367,368,369,370,371,372,373,374,375,376,377,378,379,380,381,382,383,384,385,386,387,388,389,390,391,392,393,394,395,396,397,398,399,400,401,402,403,404,405,406,407,408,409,410,411,412,413,414,415,416,417,418,419,420,421,422,423,424,425,426,427,428,429,430,431,432,433,434,435,436,437,438,439,440,441,442,443,444,445,446,447,448,449,450,451,452,453,454,455,456,457,458,459,460,461,462,463,464,465,466,467,468,469,470,471,472,473,474,475,476,477,478,479,480,481,482,483,484,485,486,487,488,489,490,491,492,493,494,495,496,497,498,499,500,501,502,503,504,505,506,507,508,509,510,511,512,513,514,515,516,517,518,519,520,521,522,523,524,525,526,527,528,529,530,531,532,533,534,535,536,537,538,539,540,541,542,543,544,545,546,547,548,549,550,551,552,553,554,555,556,557,558,559,560,561,562,563,564,565,566,567,568,569,570,571,572,573,574,575,576,577,578,579,580,581,582,583,584,585,586,587,588,589,590,591,592,593,594,595,596,597,598,599,600,601,602,603,604,605,606,607,608,609,610,611,612,613,614,615,616,617,618,619,620,621,622,623,624,625,626,627,628,629,630,631,632,633,634,635,636,637,638,639,640,641,642,643,644,645,646,647,648,649,650,651,652,653,654,655,656,657,658,659,660,661,662,663,664,665,666,667,668,669,670,671,672,673,674,675,676,677,678,679,680,681,682,683,684,685,686,687,688,689,690,691,692,693,694,695,696,697,698,699,700,701,702,703,704,705,706,707,708,709,710,711,712,713,714,715,716,717,718,719,720,721,722,723,724,725,726,727,728,729,730,731,732,733,734,735,736,737,738,739,740,741,742,743,744,745,746,747,748,749,750,751,752,753,754,755,756,757,758,759,760,761,762,763,764,765,766,767,768,769,770,771,772,773,774,775,776,777,778,779,780,781,782,783,784,785,786,787,788,789,790,791,792,793,794,795,796,797,798,799,800,801,802,803,804,805,806,807,808,809,810,811,812,813,814,815,816,817,818,819,820,821,822,823,824,825,826,827,828,829,830,831,832,833,834,835,836,837,838,839,840,841,842,843,844,845,846,847,848,849,850,851,852,853,854,855,856,857,858,859,860,861,862,863,864,865,866,867,868,869,870,871,872,873,874,875,876,877,878,879,880,881,882,883,884,885,886,887,888,889,890,891,892,893,894,895,896,897,898,899,900,901,902,903,904,905,906,907,908,909,910,911,912,913,914,915,916,917,918,919,920,921,922,923,924,925,926,927,928,929,930,931,932,933,934,935,936,937,938,939,940,941,942,943,944,945,946,947,948,949,950,951,952,953,954,955,956,957,958,959,960,961,962,963,964,965,966,967,968,969,970,971,972,973,974,975,976,977,978,979,980,981,982,983,984,985,986,987,988,989,990,991,992,993,994,995,996,997,998,999,1000,1001,1002,1003,1004,1005,1006,1007,1008,1009,1010,1011,1012,1013,1014,1015,1016,1017,1018,1019,1020,1021,1022,1023,1024,1025,1026,1027,1028,1029,1030,1031,1032,1033,1034,1035,1036,1037,1038,1039,1040,1041,1042,1043,1044,1045,1046,1047,1048,1049,1050,1051,1052,1053,1054,1055,1056,1057,1058,1059,1060,1061,1062,1063,1064,1065,1066,1067,1068,1069,1070,1071,1072,1073,1074,1075,1076,1077,1078,1079,1080,1081,1082,1083,1084,1085,1086,1087,1088,1089,1090,1091,1092,1093,1094,1095,1096,1097,1098,1099,1100,1101,1102,1103,1104,1105,1106,1107,1108,1109,1110,1111,1112,1113,1114,1115,1116,1117,1118,1119,1120,1121,1122,1123,1124,1125,1126,1127,1128,1129,1130,1131,1132,1133,1134,1135,1136,1137,1138,1139,1140,1141,1142,1143,1144,1145,1146,1147,1148,1149,1150,1151,1152,1153,1154,1155,1156,1157,1158,1159,1160,1161,1162,1163,1164,1165,1166,1167,1168,1169,1170,1171,1172,1173,1174,1175,1176,1177,1178,1179,1180,1181,1182,1183,1184,1185,1186,1187,1188,1189,1190,1191,1192,1193,1194,1195,1196,1197,1198,1199,1200,1201,1202,1203,1204,1205,1206,1207,1208,1209,1210,1211,1212,1213,1214,1215,1216,1217,1218,1219,1220,1221,1222,1223,1224,1225,1226,1227,1228,1229,1230,1231,1232,1233,1234,1235,1236,1237,1238,1239,1240,1241,1242,1243,1244,1245,1246,1247,1248,1249,1250,1251,1252,1253,1254,1255,1256,1257,1258,1259,1260,1261,1262,1263,1264,1265,1266,1267,1268,1269,1270,1271,1272,1273,1274,1275,1276,1277,1278,1279,1280,1281,1282,1283,1284,1285,1286,1287,1288,1289,1290,1291,1292,1293,1294,1295,1296,1297,1298,1299,1300,1301,1302,1303,1304,1305,1306,1307,1308,1309,1310,1311,1312,1313,1314,1315,1316,1317,1318,1319,1320,1321,1322,1323,1324,1325,1326,1327,1328,1329,1330,1331,1332,1333,1334,1335,1336,1337,1338,1339,1340,1341,1342,1343,1344,1345,1346,1347,1348,1349,1350,1351,1352,1353,1354,1355,1356,1357,1358,1359,1360,1361,1362,1363,1364,1365,1366,1367,1368,1369,1370,1371,1372,1373,1374,1375,1376,1377,1378,1379,1380,1381,1382,1383,1384,1385,1386,1387,1388,1389,1390,1391,1392,1393,1394,1395,1396,1397,1398,1399,1400,1401,1402,1403,1404,1405,1406,1407,1408,1409,1410,1411,1412,1413,1414,1415,1416,1417,1418,1419,1420,1421,1422,1423,1424,1425,1426,1427,1428,1429,1430,1431,1432,1433,1434,1435,1436,1437,1438,1439,1440,1441,1442,1443,1444,1445,1446,1447,1448,1449,1450,1451,1452,1453,1454,1455,1456,1457,1458,1459,1460,1461,1462,1463,1464,1465,1466,1467,1468,1469,1470,1471,1472,1473,1474,1475,1476,1477,1478,1479,1480,1481,1482,1483,1484,1485,1486,1487,1488,1489,1490,1491,1492,1493,1494,1495,1496,1497,1498,1499,1500,1501,1502,1503,1504,1505,1506,1507,1508,1509,1510,1511,1512,1513,1514,1515,1516,1517,1518,1519,1520,1521,1522,1523,1524,1525,1526,1527,1528,1529,1530,1531,1532,1533,1534,1535,1536,1537,1538,1539,1540,1541,1542,1543,1544,1545,1546,1547,1548,1549,1550,1551,1552,1553,1554,1555,1556,1557,1558,1559,1560,1561,1562,1563,1564,1565,1566,1567,1568,1569,1570,1571,1572,1573,1574,1575,1576,1577,1578,1579,1580,1581,1582,1583,1584,1585,1586,1587,1588,1589,1590,1591,1592,1593,1594,1595,1596,1597,1598,1599,1600,1601,1602,1603,1604,1605,1606,1607,1608,1609,1610,1611,1612,1613,1614,1615,1616,1617,1618,1619,1620,1621,1622,1623,1624,1625,1626,1627,1628,1629,1630,1631,1632,1633,1634,1635,1636,1637,1638,1639,1640,1641,1642,1643,1644,1645,1646,1647,1648,1649,1650,1651,1652,1653,1654,1655,1656,1657,1658,1659,1660,1661,1662,1663,1664,1665,1666,1667,1668,1669,1670,1671,1672,1673,1674,1675,1676,1677,1678,1679,1680,1681,1682,1683,1684,1685,1686,1687,1688,1689,1690,1691,1692,1693,1694,1695,1696,1697,1698,1699,1700,1701,1702,1703,1704,1705,1706,1707,1708,1709,1710,1711,1712,1713,1714,1715,1716,1717,1718,1719,1720,1721,1722,1723,1724,1725,1726,1727,1728,1729,1730,1731,1732,1733,1734,1735,1736,1737,1738,1739,1740,1741,1742,1743,1744,1745,1746,1747,1748,1749,1750,1751,1752,1753,1754,1755,1756,1757,1758,1759,1760,1761,1762,1763,1764,1765,1766,1767,1768,1769,1770,1771,1772,1773,1774,1775,1776,1777,1778,1779,1780,1781,1782,1783,1784,1785,1786,1787,1788,1789,1790,1791,1792,1793,1794,1795,1796,1797,1798,1799,1800,1801,1802,1803,1804,1805,1806,1807,1808,1809,1810,1811,1812,1813,1814,1815,1816,1817,1818,1819,1820,1821,1822,1823,1824,1825,1826,1827,1828,1829,1830,1831,1832,1833,1834,1835,1836,1837,1838,1839,1840,1841,1842,1843,1844,1845,1846,1847,1848,1849,1850,1851,1852,1853,1854,1855,1856,1857,1858,1859,1860,1861,1862,1863,1864,1865,1866,1867,1868,1869,1870,1871,1872,1873,1874,1875,1876,1877,1878,1879,1880,1881,1882,1883,1884,1885,1886,1887,1888,1889,1890,1891,1892,1893,1894,1895,1896,1897,1898,1899,1900,1901,1902,1903,1904,1905,1906,1907,1908,1909,1910,1911,1912,1913,1914,1915,1916,1917,1918,1919,1920,1921,1922,1923,1924,1925,1926,1927,1928,1929,1930,1931,1932,1933,1934,1935,1936,1937,1938,1939,1940,1941,1942,1943,1944,1945,1946,1947,1948,1949,1950,1951,1952,1953,1954,1955,1956,1957,1958,1959,1960,1961,1962,1963,1964,1965,1966,1967,1968,1969,1970,1971,1972,1973,1974,1975,1976,1977,1978,1979,1980,1981,1982,1983,1984,1985,1986,1987,1988,1989,1990,1991,1992,1993,1994,1995,1996,1997,1998,1999,2000,2001,2002,2003,2004,2005,2006,2007,2008,2009,2010,2011,2012,2013,2014,2015,2016,2017,2018,2019,2020,2021,2022,2023,2024,2025,2026,2027,2028,2029,2030,2031,2032,2033,2034,2035,2036,2037,2038,2039,2040,2041,2042,2043,2044,2045,2046,2047,2048,2049,2050,2051,2052,2053,2054,2055,2056,2057,2058,2059,2060,2061,2062,2063,2064,2065,2066,2067,2068,2069,2070,2071,2072,2073,2074,2075,2076,2077,2078,2079,2080,2081,2082,2083,2084,2085,2086,2087,2088,2089,2090,2091,2092,2093,2094,2095,2096,2097,2098,2099,2100,2101,2102,2103,2104,2105,2106,2107,2108,2109,2110,2111,2112,2113,2114,2115,2116,2117,2118,2119,2120,2121,2122,2123,2124,2125,2126,2127,2128,2129,2130,2131,2132,2133,2134,2135,2136,2137,2138,2139,2140,2141,2142,2143,2144,2145,2146,2147,2148,2149,2150,2151,2152,2153,2154,2155,2156,2157,2158,2159,2160,2161,2162,2163,2164,2165,2166,2167,2168,2169,2170,2171,2172,2173,2174,2175,2176,2177,2178,2179,2180,2181,2182,2183,2184,2185,2186,2187,2188,2189,2190,2191,2192,2193,2194,2195,2196,2197,2198,2199,2200,2201,2202,2203,2204,2205,2206,2207,2208,2209,2210,2211,2212,2213,2214,2215,2216,2217,2218,2219,2220,2221,2222,2223,2224,2225,2226,2227,2228,2229,2230,2231,2232,2233,2234,2235,2236,2237,2238,2239,2240,2241,2242,2243,2244,2245,2246,2247,2248,2249,2250,2251,2252,2253,2254,2255,2256,2257,2258,2259,2260,2261,2262,2263,2264,2265,2266,2267,2268,2269,2270,2271,2272,2273,2274,2275,2276,2277,2278,2279,2280,2281,2282,2283,2284,2285,2286,2287,2288,2289,2290,2291,2292,2293,2294,2295,2296,2297,2298,2299,2300,2301,2302,2303,2304,2305,2306,2307,2308,2309,2310,2311,2312,2313,2314,2315,2316,2317,2318,2319,2320,2321,2322,2323,2324,2325,2326,2327,2328,2329,2330,2331,2332,2333,2334,2335,2336,2337,2338,2339,2340,2341,2342,2343,2344,2345,2346,2347,2348,2349,2350,2351,2352,2353,2354,2355,2356,2357,2358,2359,2360,2361,2362,2363,2364,2365,2366,2367,2368,2369,2370,2371,2372,2373,2374,2375,2376,2377,2378,2379,2380,2381,2382,2383,2384,2385,2386,2387,2388,2389,2390,2391,2392,2393,2394,2395,2396,2397,2398,2399,2400,2401,2402,2403,2404,2405,2406,2407,2408,2409,2410,2411,2412,2413,2414,2415,2416,2417,2418,2419,2420,2421,2422,2423,2424,2425,2426,2427,2428,2429,2430,2431,2432,2433,2434,2435,2436,2437,2438,2439,2440,2441,2442,2443,2444,2445,2446,2447,2448,2449,2450,2451,2452,2453,2454,2455,2456,2457,2458,2459,2460,2461,2462,2463,2464,2465,2466,2467,2468,2469,2470,2471,2472,2473,2474,2475,2476,2477,2478,2479,2480,2481,2482,2483,2484,2485,2486,2487,2488,2489,2490,2491,2492,2493,2494,2495,2496,2497,2498,2499,2500,2501,2502,2503,2504,2505,2506,2507,2508,2509,2510,2511,2512,2513,2514,2515,2516,2517,2518,2519,2520,2521,2522,2523,2524,2525,2526,2527,2528,2529,2530,2531,2532,2533,2534,2535,2536,2537,2538,2539,2540,2541,2542,2543,2544,2545,2546,2547,2548,2549,2550,2551,2552,2553,2554,2555,2556,2557,2558,2559,2560,2561,2562,2563,2564,2565,2566,2567,2568,2569,2570,2571,2572,2573,2574,2575,2576,2577,2578,2579,2580,2581,2582,2583,2584,2585,2586,2587,2588,2589,2590,2591,2592,2593,2594,2595,2596,2597,2598,2599,2600,2601,2602,2603,2604,2605,2606,2607,2608,2609,2610,2611,2612,2613,2614,2615,2616,2617,2618,2619,2620,2621,2622,2623,2624,2625,2626,2627,2628,2629,2630,2631,2632,2633,2634,2635,2636,2637,2638,2639,2640,2641,2642,2643,2644,2645,2646,2647,2648,2649,2650,2651,2652,2653,2654,2655,2656,2657,2658,2659,2660,2661,2662,2663,2664,2665,2666,2667,2668,2669,2670,2671,2672,2673,2674,2675,2676,2677,2678,2679,2680,2681,2682,2683,2684,2685,2686,2687,2688,2689,2690,2691,2692,2693,2694,2695,2696,2697,2698,2699,2700,2701,2702,2703,2704,2705,2706,2707,2708,2709,2710,2711,2712,2713,2714,2715,2716,2717,2718,2719,2720,2721,2722,2723,2724,2725,2726,2727,2728,2729,2730,2731,2732,2733,2734,2735,2736,2737,2738,2739,2740,2741,2742,2743,2744,2745,2746,2747,2748,2749,2750,2751,2752,2753,2754,2755,2756,2757,2758,2759,2760,2761,2762,2763,2764,2765,2766,2767,2768,2769,2770,2771,2772,2773,2774,2775,2776,2777,2778,2779,2780,2781,2782,2783,2784,2785,2786,2787,2788,2789,2790,2791,2792,2793,2794,2795,2796,2797,2798,2799,2800,2801,2802,2803,2804,2805,2806,2807,2808,2809,2810,2811,2812,2813,2814,2815,2816,2817,2818,2819,2820,2821,2822,2823,2824,2825,2826,2827,2828,2829,2830,2831,2832,2833,2834,2835,2836,2837,2838,2839,2840,2841,2842,2843,2844,2845,2846,2847,2848,2849,2850,2851,2852,2853,2854,2855,2856,2857,2858,2859,2860,2861,2862,2863,2864,2865,2866,2867,2868,2869,2870,2871,2872,2873,2874,2875,2876,2877,2878,2879,2880,2881,2882,2883,2884,2885,2886,2887,2888,2889,2890,2891,2892,2893,2894,2895,2896,2897,2898,2899,2900,2901,2902,2903,2904,2905,2906,2907,2908,2909,2910,2911,2912,2913,2914,2915,2916,2917,2918,2919,2920,2921,2922,2923,2924,2925,2926,2927,2928,2929,2930,2931,2932,2933,2934,2935,2936,2937,2938,2939,2940,2941,2942,2943,2944,2945,2946,2947,2948,2949,2950,2951,2952,2953,2954,2955,2956,2957,2958,2959,2960,2961,2962,2963,2964,2965,2966,2967,2968,2969,2970,2971,2972,2973,2974,2975,2976,2977,2978,2979,2980,2981,2982,2983,2984,2985,2986,2987,2988,2989,2990,2991,2992,2993,2994,2995,2996,2997,2998,2999,label
148,-110,-196,-26,156,2,-162,24,186,-20,-160,20,176,-52,-172,70,160,-66,-154,64,148,-72,-166,84,136,-92,-148,88,158,-102,-138,106,122,-120,-112,96,106,-104,-90,138,86,-104,-82,108,72,-116,-70,120,58,-128,-52,116,70,-104,-44,116,24,-102,-24,110,24,-126,0,124,-4,-106,32,146,-36,-158,46,184,-60,-178,64,162,-66,-176,84,154,-86,-166,104,154,-104,-142,108,134,-122,-130,122,114,-126,-114,132,110,-132,-100,144,104,-136,-100,154,100,-158,-102,158,96,-166,-96,172,82,-154,-90,176,80,-168,-74,182,76,-182,-80,182,70,-188,-64,182,50,-190,-52,192,28,-202,-18,192,14,-200,2,200,-30,-194,36,224,-60,-200,80,178,-84,-192,100,182,-102,-190,116,168,-116,-164,136,148,-140,-152,140,126,-142,-130,140,122,-150,-130,148,116,-146,-120,152,110,-154,-110,188,102,-174,-92,184,90,-204,-78,202,84,-192,-80,188,76,-192,-66,190,52,-210,-26,204,18,-196,-22,194,-10,-206,22,214,-52,-230,86,204,-82,-206,90,194,-108,-200,144,132,-106,-124,112,104,-124,-108,106,86,-124,-104,96,50,-126,-88,120,62,-114,-56,136,74,-110,-52,122,54,-110,-44,122,46,-116,-46,126,38,-122,-32,128,22,-132,-34,132,20,-146,-12,136,0,-134,28,142,-40,-146,54,142,-64,-152,80,150,-86,-144,102,140,-106,-138,120,128,-116,-108,132,100,-132,-90,150,80,-150,-74,160,60,-152,-62,162,50,-150,-68,146,40,-152,-48,146,42,-148,-28,150,26,-150,-30,142,26,-150,-24,154,16,-152,-22,148,18,-154,-10,150,10,-160,-8,142,-8,-156,6,154,-20,-150,34,146,-40,-150,66,152,-78,-156,98,150,-106,-156,116,136,-118,-148,136,124,-138,-126,144,92,-148,-94,150,80,-152,-78,146,54,-154,-62,156,52,-158,-52,154,46,-152,-48,152,40,-148,-40,142,28,-154,-26,150,14,-152,-16,152,22,-150,-10,156,18,-152,-2,152,2,-148,-8,152,-4,-148,18,156,-16,-156,36,158,-62,-154,76,158,-98,-160,106,162,-122,-154,118,154,-134,-142,128,134,-140,-112,148,104,-148,-96,162,72,-158,-68,154,62,-166,-58,160,54,-152,-42,164,46,-158,-30,148,22,-158,-32,152,12,-164,-18,154,10,-156,-8,160,4,-160,-4,156,0,-156,0,156,-10,-158,12,152,-16,-160,20,158,-38,-160,54,158,-72,-156,86,160,-110,-154,130,170,-128,-162,136,144,-146,-142,158,126,-156,-114,152,96,-158,-86,168,64,-168,-66,168,54,-176,-50,172,40,-172,-34,164,30,-164,-24,160,18,-156,-20,160,8,-162,-6,160,0,-170,-6,162,-2,-156,-2,154,-8,-166,14,164,-20,-172,26,166,-46,-162,70,166,-88,-172,106,166,-124,-170,132,160,-138,-148,146,150,-156,-134,162,116,-170,-94,164,84,-176,-76,172,66,-176,-52,172,44,-166,-30,164,18,-172,-22,164,18,-166,-24,160,10,-166,-8,162,-6,-154,0,150,-8,-166,2,160,8,-162,4,162,-14,-164,28,158,-24,-160,46,158,-74,-162,78,160,-106,-166,124,160,-126,-164,138,148,-154,-144,160,134,-160,-122,162,98,-168,-86,166,68,-170,-62,174,34,-176,-36,162,36,-168,-28,168,22,-172,-20,158,2,-148,-14,166,8,-158,0,152,2,-170,8,164,-2,-166,4,162,-16,-164,20,162,-44,-162,50,156,-62,-162,84,160,-90,-164,102,164,-118,-156,134,148,-148,-150,152,144,-162,-126,154,98,-154,-98,162,70,-172,-64,190,48,-174,-56,170,28,-168,-26,168,26,-172,-28,158,14,-156,-10,156,6,-160,-14,152,-4,-158,0,156,-6,-150,-4,154,-6,-148,0,156,-12,-170,14,174,-30,-162,38,160,-58,-170,84,164,-84,-168,102,154,-114,-160,132,154,-136,-152,146,132,-152,-130,162,106,-162,-94,166,76,-172,-82,166,64,-162,-50,164,42,-176,-32,168,32,-170,-26,156,10,-152,-12,154,6,-154,-6,158,10,-154,0,160,-6,-166,0,156,0,-158,16,158,-12,-166,2,156,-22,-174,32,156,-52,-162,58,154,-94,-156,106,156,-108,-160,124,152,-130,-152,140,140,-142,-126,156,102,-158,-98,156,82,-162,-74,160,56,-174,-50,172,42,-174,-30,166,34,-168,-22,164,16,-160,-16,158,14,-156,-10,150,12,-162,-8,156,-2,-152,0,154,-4,-170,0,156,0,-150,12,170,-12,-156,20,160,-38,-156,48,168,-66,-164,90,158,-108,-166,114,162,-128,-158,138,146,-146,-126,154,128,-154,-120,154,90,-162,-82,166,70,-174,-52,160,46,-172,-44,160,26,-170,-38,174,30,-158,-38,162,22,-158,-20,160,8,-168,-4,158,4,-170,-8,154,2,-152,0,152,0,-160,4,150,-14,-158,18,160,-18,-150,34,154,-40,-160,58,166,-64,-158,90,158,-110,-166,118,152,-120,-154,136,140,-144,-142,144,120,-150,-102,154,88,-152,-82,174,66,-168,-62,166,50,-160,-54,172,44,-164,-40,170,32,-176,-36,168,18,-166,-16,170,14,-156,-12,148,14,-162,-4,154,2,-162,200,112,-40,-96,48,92,-56,-84,68,64,-56,-54,70,60,-64,-48,70,46,-68,-46,76,56,-80,-38,90,44,-76,-40,94,30,-86,-22,98,22,-74,-12,78,8,-76,-6,64,0,-60,2,68,2,-50,12,74,-6,-44,0,44,-14,-46,24,42,-20,-38,24,46,-32,-44,32,40,-56,-46,56,68,-56,-68,60,70,-76,-68,66,58,-86,-52,90,52,-94,-38,100,38,-90,-24,102,22,-94,-12,100,12,-98,-4,100,6,-92,-4,96,10,-86,0,106,8,-86,-2,100,6,-92,-2,86,0,-82,8,92,-4,-84,6,88,-4,-78,10,88,-12,-84,12,86,-14,-78,32,94,-30,-84,28,86,-34,-84,44,76,-64,-94,66,88,-74,-60,92,74,-86,-60,96,66,-90,-56,94,50,-102,-36,114,48,-96,-18,112,30,-98,-20,98,18,-100,-14,98,28,-88,-22,84,8,-98,-4,106,24,-82,0,108,0,-94,2,102,-4,-88,0,86,-8,-82,16,98,-22,-90,34,82,-34,-94,36,82,-48,-88,64,104,-80,-86,74,88,-82,-66,96,78,-104,-42,98,38,-80,-24,90,18,-76,-18,74,18,-84,-22,66,0,-74,-12,80,10,-60,6,76,10,-50,6,64,0,-50,12,66,2,-44,8,60,-8,-52,14,60,-8,-38,2,76,-8,-52,28,52,-40,-50,50,64,-50,-64,56,58,-68,-60,66,52,-76,-62,78,48,-88,-38,84,34,-84,-26,96,22,-94,-8,94,14,-96,6,102,0,-90,14,96,0,-90,0,96,-2,-78,10,88,-12,-88,18,82,-16,-74,28,74,-14,-76,26,68,-12,-72,16,64,-16,-64,30,72,-12,-60,34,66,-32,-64,36,72,-42,-54,46,60,-58,-62,66,68,-74,-58,78,60,-88,-46,88,58,-90,-38,100,46,-94,-26,100,28,-100,-8,92,20,-92,6,96,2,-92,0,94,-2,-96,14,92,8,-88,8,78,-12,-82,20,82,-12,-76,28,80,-24,-74,18,74,-16,-70,24,72,-24,-62,38,66,-24,-66,30,54,-38,-64,36,68,-46,-66,62,66,-70,-64,80,64,-76,-64,94,60,-92,-62,90,50,-90,-40,98,36,-94,-28,108,22,-100,0,104,0,-94,10,108,4,-92,10,100,-6,-96,20,94,-6,-80,24,84,-16,-78,26,90,-26,-76,22,76,-26,-78,22,84,-30,-66,28,72,-32,-60,38,76,-34,-60,46,68,-38,-64,50,72,-48,-64,64,70,-72,-58,80,72,-96,-58,90,64,-94,-48,100,54,-116,-42,112,38,-92,-18,106,28,-96,-4,110,0,-94,6,102,-14,-114,12,104,-8,-106,22,98,-20,-82,22,70,-22,-86,34,74,-24,-78,44,80,-26,-72,34,74,-28,-60,34,76,-30,-72,44,76,-32,-74,54,66,-62,-64,78,74,-82,-70,100,72,-100,-58,100,62,-96,-52,114,42,-104,-30,112,26,-112,-6,112,8,-104,-6,112,0,-86,20,104,-16,-86,28,92,-28,-88,26,86,-22,-76,24,98,-24,-78,38,76,-30,-64,40,74,-26,-66,30,74,-26,-68,38,74,-36,-58,52,72,-44,-70,64,66,-60,-58,82,66,-88,-66,102,60,-92,-52,112,56,-112,-36,116,40,-98,-28,112,12,-100,2,100,0,-110,22,110,-18,-96,16,90,-12,-104,28,110,-22,-82,26,76,-18,-100,30,78,-22,-68,32,82,-32,-76,34,76,-28,-68,42,72,-42,-68,52,64,-56,-62,60,62,-64,-70,82,66,-70,-64,90,56,-98,-54,106,58,-108,-48,114,48,-104,-26,106,24,-100,-8,102,6,-124,10,106,-2,-100,20,102,-20,-94,22,100,-18,-88,16,82,-30,-78,36,88,-22,-74,34,78,-26,-68,40,70,-14,-66,40,60,-32,-56,24,76,-34,-66,48,78,-50,-60,60,82,-66,-70,78,68,-68,-58,88,64,-88,-56,102,56,-92,-46,114,46,-104,-24,110,26,-108,-2,104,14,-98,-12,106,-4,-90,16,104,-10,-88,24,100,-12,-96,40,76,-28,-72,26,86,-28,-72,24,72,-28,-68,38,84,-28,-66,34,70,-28,-68,46,72,-22,-62,38,80,-40,-62,64,66,-50,-64,78,62,-76,-56,90,66,-82,-54,92,56,-90,-46,106,38,-106,-28,110,20,-84,-18,102,6,-94,12,102,-4,-104,10,104,-14,-98,16,98,-28,-92,20,90,-24,-82,28,86,-24,-64,20,82,-26,-70,36,68,-32,-70,42,78,-30,-66,32,74,-28,-68,34,72,-34,-66,54,54,-46,-66,66,68,-70,-56,88,64,-84,-60,100,66,-98,-46,110,42,-108,-38,110,38,-100,-20,104,20,-102,-2,106,0,-96,16,104,-12,-90,16,102,-10,-98,16,96,0,-90,16,86,-20,-84,30,86,-26,-86,34,82,-22,-74,30,74,-30,-70,38,72,-26,-76,44,68,-36,-70,38,68,-46,-60,48,68,-46,-68,66,64,-68,-54,80,68,-88,-56,92,56,-98,-42,100,56,-104,-36,100,28,-94,-12,98,12,-120,-4,106,0,-100,6,100,-6,-94,8,106,-12,-100,20,100,-16,-88,20,98,-34,-92,30,80,-16,-66,24,84,-24,-76,28,82,-28,-236,-52,66,-14,-62,10,66,-10,-72,-2,58,2,-82,8,80,-34,-84,30,92,-32,-92,36,98,-46,-90,46,88,-56,-98,58,86,-64,-80,66,60,-58,-58,56,46,-80,-42,62,40,-70,-36,60,20,-76,-22,56,10,-62,-18,54,2,-62,0,52,-6,-54,0,62,-16,-66,30,46,-36,-84,30,78,-40,-96,58,96,-50,-78,64,98,-70,-84,70,86,-86,-94,78,78,-88,-80,94,70,-100,-66,104,58,-106,-60,102,48,-118,-60,102,40,-128,-48,112,38,-124,-38,122,34,-124,-24,106,20,-126,-24,110,14,-122,-14,118,10,-124,-8,126,4,-116,6,116,-8,-124,12,122,-18,-116,16,118,-24,-112,52,112,-46,-128,58,108,-80,-108,70,106,-92,-108,82,112,-92,-98,94,90,-118,-92,110,78,-122,-78,116,68,-116,-62,128,68,-122,-68,118,52,-120,-34,120,32,-144,-42,114,4,-142,-12,142,0,-152,-6,130,4,-124,4,134,-14,-136,10,138,-36,-128,40,128,-24,-106,52,116,-60,-126,68,126,-84,-110,88,100,-100,-108,96,104,-120,-68,84,58,-94,-50,98,66,-84,-52,110,78,-60,0,108,46,-112,-26,84,0,-120,-42,76,-2,-102,-10,80,-12,-98,-4,68,-10,-90,10,76,-22,-86,28,78,-12,-106,24,88,-40,-84,42,80,-68,-98,72,100,-78,-92,88,100,-92,-98,104,106,-116,-88,118,88,-122,-88,122,70,-146,-64,138,48,-156,-46,160,24,-172,-24,158,10,-176,-10,166,22,-162,0,156,-2,-158,0,160,-22,-152,24,150,-34,-138,22,146,-38,-140,36,142,-42,-128,42,132,-62,-124,42,132,-60,-120,68,130,-68,-132,74,114,-88,-116,90,118,-106,-122,110,114,-122,-110,136,104,-140,-100,136,98,-156,-92,154,82,-162,-62,164,44,-160,-48,172,24,-164,-22,170,16,-174,-8,178,0,-166,-14,168,-6,-160,14,168,-24,-152,18,162,-36,-158,42,150,-46,-150,34,142,-58,-144,44,134,-70,-138,58,130,-58,-122,70,126,-80,-130,82,124,-96,-128,116,118,-120,-120,130,122,-144,-122,148,112,-140,-106,156,98,-156,-98,160,74,-174,-66,162,44,-176,-36,176,18,-184,-24,180,4,-188,-10,176,-12,-184,-6,178,-26,-168,26,170,-30,-168,44,164,-40,-156,50,160,-54,-158,62,142,-58,-148,68,136,-72,-148,74,134,-84,-138,74,136,-84,-138,84,128,-106,-134,120,116,-124,-132,148,102,-156,-126,158,118,-164,-112,180,102,-186,-92,178,72,-186,-68,178,38,-196,-22,184,18,-194,-6,216,0,-200,2,206,-26,-186,22,180,-38,-172,40,184,-48,-168,50,170,-72,-164,62,166,-66,-162,70,144,-70,-150,72,150,-90,-150,80,152,-100,-140,106,132,-128,-146,136,146,-158,-138,166,130,-166,-132,166,112,-186,-112,182,100,-196,-86,204,54,-194,-48,202,34,-204,-22,194,-8,-210,0,190,-24,-192,34,198,-36,-184,40,178,-40,-188,52,172,-62,-172,68,156,-66,-154,66,158,-82,-156,68,148,-82,-152,80,144,-104,-148,82,138,-108,-136,124,134,-134,-134,148,130,-166,-122,156,126,-176,-124,184,100,-194,-100,184,80,-202,-56,196,36,-196,-28,208,2,-204,8,200,-12,-188,4,210,-28,-202,26,184,-36,-172,46,178,-50,-164,42,160,-64,-162,62,164,-80,-160,72,156,-80,-154,84,148,-88,-142,108,138,-108,-130,112,136,-140,-124,128,130,-148,-128,158,122,-168,-118,182,108,-186,-114,188,90,-188,-68,180,58,-186,-36,210,12,-210,-4,206,0,-204,18,194,-26,-196,24,194,-26,-180,50,172,-54,-176,48,164,-52,-160,58,156,-70,-156,56,142,-76,-144,72,136,-64,-150,82,144,-88,-160,94,138,-100,-152,110,140,-140,-132,122,134,-148,-130,150,124,-170,-122,160,116,-182,-100,176,90,-194,-80,190,48,-188,-46,196,42,-204,-14,192,-4,-198,-4,200,-22,-204,16,202,-44,-170,36,166,-40,-174,56,158,-60,-160,56,154,-74,-160,70,152,-74,-150,62,146,-92,-142,66,144,-74,-148,88,146,-106,-138,98,138,-118,-128,136,122,-154,-130,138,122,-158,-124,160,118,-180,-110,172,92,-184,-66,170,64,-190,-42,190,24,-188,-22,200,2,-200,4,204,-26,-194,24,194,-28,-186,38,182,-46,-184,46,162,-48,-166,52,162,-60,-162,64,160,-74,-154,66,156,-68,-152,62,134,-82,-156,74,142,-92,-136,96,140,-116,-140,118,122,-138,-128,146,132,-158,-140,160,122,-176,-118,178,100,-186,-100,178,80,-184,-60,192,36,-198,-34,200,0,-194,-2,194,-2,-192,14,198,-14,-202,12,186,-26,-184,32,184,-44,-178,50,184,-64,-164,52,174,-58,-162,66,154,-74,-152,58,162,-78,-138,76,144,-90,-146,88,130,-98,-138,96,138,-124,-138,114,120,-136,-132,154,130,-162,-122,160,116,-170,-118,176,98,-170,-84,174,60,-186,-58,198,48,-198,-28,198,16,-196,-10,190,8,-212,4,198,-16,-198,16,204,-22,-202,46,188,-42,-178,34,164,-54,-168,46,166,-58,-160,62,154,cylindrical
276,-4,80,-120,-136,122,114,-100,-116,106,116,-106,-108,124,118,-112,-102,136,114,-140,-100,136,110,-126,-106,142,80,-148,-76,132,62,-144,-54,150,40,-158,-36,172,-2,-162,2,154,-20,-166,24,158,-34,-168,44,162,-54,-168,68,148,-68,-156,72,152,-88,-152,84,140,-94,-168,96,132,-102,-128,96,138,-108,-132,110,142,-108,-112,120,116,-122,-108,136,102,-130,-102,142,94,-132,-110,136,80,-142,-82,154,56,-154,-50,160,24,-162,-10,158,0,-166,-2,160,-14,-176,18,162,-30,-174,40,164,-44,-168,52,170,-68,-156,90,164,-82,-164,78,154,-84,-154,96,130,-102,-124,114,118,-110,-132,124,120,-122,-120,128,112,-128,-100,146,104,-116,-108,142,100,-150,-88,144,90,-142,-88,154,66,-154,-42,164,48,-164,-32,164,14,-168,-12,172,0,-176,2,170,-20,-188,36,176,-34,-184,50,178,-56,-180,78,166,-78,-174,84,154,-94,-162,100,136,-104,-148,104,128,-106,-150,118,114,-122,-132,126,116,-126,-110,130,120,-136,-100,144,102,-138,-106,172,84,-162,-84,140,76,-150,-88,168,64,-160,-56,160,40,-164,-30,164,6,-170,8,176,0,-182,16,174,-28,-184,38,184,-48,-210,80,168,-74,-176,76,176,-78,-164,98,152,-112,-142,110,142,-110,-140,112,122,-116,-140,138,138,-128,-128,136,116,-128,-112,130,96,-138,-102,162,66,-154,-96,156,110,-150,-86,162,78,-156,-68,174,80,-176,-52,170,54,-164,-42,178,32,-170,-24,196,6,-176,8,176,-24,-192,36,184,-62,-180,72,178,-60,-206,82,166,-90,-170,92,152,-98,-150,120,140,-118,-152,98,148,-124,-132,128,110,-128,-112,158,116,-126,-102,144,100,-154,-106,144,96,-144,-98,156,84,-164,-94,162,82,-166,-66,146,62,-154,-58,160,44,-192,-30,152,40,-168,0,168,0,-184,20,174,-24,-180,50,180,-60,-184,78,184,-78,-184,88,168,-96,-168,110,152,-106,-148,98,144,-116,-136,118,132,-120,-130,108,116,-138,-120,132,116,-136,-110,142,104,-138,-122,156,100,-146,-110,162,94,-156,-86,156,82,-158,-66,162,60,-172,-52,160,54,-162,-46,174,28,-164,-12,172,0,-172,10,174,-16,-186,24,180,-50,-178,68,174,-76,-158,66,162,-86,-146,94,142,-110,-154,112,128,-120,-142,110,124,-128,-128,134,104,-150,-96,136,106,-142,-100,142,110,-138,-94,154,102,-142,-104,164,102,-152,-78,150,86,-156,-80,160,74,-150,-58,170,38,-170,-56,184,46,-186,-24,174,10,-182,-4,172,8,-174,34,164,-50,-186,70,180,-64,-178,76,180,-84,-182,92,154,-92,-170,98,150,-106,-142,116,128,-132,-140,132,112,-126,-132,140,126,-134,-104,130,106,-142,-102,166,102,-150,-102,158,102,-160,-68,152,98,-150,-72,160,68,-166,-68,168,64,-176,-62,166,42,-162,-36,166,22,-166,-12,178,0,-182,18,198,-32,-188,46,172,-64,-162,76,172,-92,-182,86,150,-104,-164,102,146,-104,-144,122,120,-110,-128,110,120,-128,-130,140,116,-140,-122,142,114,-136,-110,152,102,-144,-90,150,86,-154,-92,154,80,-160,-88,160,62,-164,-66,160,68,-164,-58,154,70,-174,-48,170,26,-172,-36,192,10,-196,6,174,-28,-182,42,196,-62,-178,54,170,-54,-180,80,164,-90,-166,100,140,-118,-118,106,138,-116,-138,108,124,-124,-130,140,106,-122,-128,124,108,-128,-116,128,106,-136,-100,140,94,-132,-100,162,100,-150,-96,170,76,-160,-86,178,70,-158,-70,160,70,-194,-62,162,60,-158,-40,168,30,-172,-18,176,-6,-144,20,174,-22,-168,46,178,-58,-182,62,186,-90,-192,84,172,-88,-156,96,146,-108,-166,124,132,-120,-134,116,138,-128,-126,136,118,-128,-122,132,110,-136,-104,134,90,-150,-96,154,78,-150,-94,164,92,-170,-80,156,58,-160,-70,170,64,-162,-70,164,64,-166,-52,172,24,-170,-26,168,2,-178,-2,198,-12,-176,30,186,-38,-180,72,188,-68,-180,82,178,-94,-162,106,156,-108,-164,100,150,-116,-158,114,134,-118,-136,128,128,-130,-116,136,118,-122,-114,132,104,-142,-108,160,100,-154,-86,158,88,-162,-88,162,88,-164,-78,172,70,-158,-78,164,66,-166,-44,166,36,-162,-40,176,18,-176,-16,168,-4,-176,22,184,-48,-180,64,176,-68,-182,74,178,-88,-170,74,172,-106,-158,102,150,-124,-148,114,132,-118,-136,132,126,-132,-118,142,114,-136,-120,132,124,-140,-102,146,90,-138,-106,152,90,-138,-104,150,84,-164,-66,164,84,-162,-78,164,78,-166,-74,166,50,-162,-44,166,32,-170,-16,170,18,-176,-8,172,-10,-182,18,174,-36,-178,56,166,-56,-170,60,178,-80,-164,92,170,-106,-160,100,144,-96,-130,116,126,-120,-132,132,126,-118,-124,124,124,-132,-110,142,80,-138,-86,148,96,-146,-92,158,88,-148,-88,162,80,-152,-68,152,66,-152,-66,162,56,-156,-60,172,44,-168,-38,170,14,-148,-8,162,-10,-174,48,168,-42,-180,52,168,-52,-176,66,162,132,8,34,8,-54,-22,60,36,-64,-32,74,26,-78,-22,74,10,-72,-20,78,6,-56,-12,62,18,-58,-4,64,4,-48,6,64,-4,-60,12,64,-22,-74,26,68,-36,-54,42,70,-44,-56,46,62,-52,-54,60,62,-70,-50,70,54,-68,-50,78,52,-68,-36,80,54,-74,-32,88,32,-72,-34,80,26,-62,-42,72,18,-64,-20,74,18,-64,-12,72,12,-64,-10,70,20,-52,-2,64,14,-62,6,66,-2,-62,22,72,-26,-64,36,70,-32,-58,42,70,-40,-60,44,66,-50,-60,54,62,-54,-58,64,50,-78,-56,78,54,-72,-42,86,48,-76,-26,88,24,-82,-22,86,28,-74,-18,82,22,-72,-20,74,10,-74,-12,70,10,-58,-10,80,8,-54,-6,66,10,-62,2,66,-14,-66,12,74,-18,-62,26,64,-26,-64,30,68,-32,-60,46,74,-52,-68,48,74,-54,-60,58,70,-72,-54,74,64,-72,-46,88,54,-80,-32,86,44,-78,-24,80,42,-82,-18,86,28,-82,-20,82,16,-72,-28,80,10,-72,-12,80,14,-72,0,88,8,-56,6,72,0,-68,10,74,-6,-60,22,70,-22,-62,32,72,-36,-70,40,70,-42,-66,56,78,-56,-72,52,88,-70,-58,72,70,-76,-64,74,52,-82,-48,94,42,-82,-36,90,40,-88,-18,86,32,-92,-32,92,28,-84,-18,86,18,-74,-6,84,10,-80,6,88,8,-70,-10,76,2,-68,-2,76,-4,-66,2,78,-12,-74,4,72,-16,-72,20,72,-26,-84,28,74,-32,-62,50,86,-50,-72,66,70,-74,-64,70,84,-68,-54,78,58,-78,-46,90,40,-92,-36,92,40,-72,-34,92,28,-82,-10,92,22,-96,-18,82,10,-82,-6,98,12,-66,0,82,6,-74,-4,88,8,-76,0,82,-2,-62,8,70,-10,-62,8,78,-30,-62,20,74,-28,-60,36,74,-46,-66,44,72,-64,-70,68,76,-70,-66,78,70,-78,-56,86,58,-90,-46,86,40,-80,-30,94,32,-86,-24,92,26,-74,-18,94,26,-86,-18,90,14,-76,-8,86,24,-76,-10,84,16,-76,-8,82,4,-62,-2,76,-6,-70,10,82,-14,-64,8,66,-16,-66,20,66,-30,-64,40,72,-46,-64,46,74,-50,-70,56,72,-72,-62,72,62,-68,-52,84,42,-82,-38,90,44,-88,-34,96,38,-76,-18,100,28,-94,-6,104,10,-92,-6,96,10,-86,-8,90,4,-82,-8,82,20,-74,-14,84,4,-66,0,80,-2,-64,4,68,-10,-70,18,74,-4,-76,14,78,-20,-68,32,70,-34,-68,32,66,-54,-60,58,72,-74,-70,66,66,-74,-60,80,66,-80,-52,88,56,-76,-44,92,42,-88,-28,100,30,-94,-16,94,32,-90,-24,88,10,-80,-8,92,10,-92,-10,88,12,-76,-6,92,-6,-70,-2,76,-2,-68,8,78,-6,-68,6,76,-2,-66,16,70,-22,-62,26,64,-28,-74,36,74,-48,-82,50,80,-56,-64,68,60,-76,-62,86,68,-78,-44,90,56,-80,-36,90,36,-92,-24,90,32,-78,-12,100,28,-98,-20,102,26,-86,-20,88,18,-90,-8,86,6,-80,-2,90,10,-70,2,82,0,-70,8,80,-6,-68,12,74,-4,-56,2,76,-14,-64,22,72,-18,-78,24,88,-34,-66,52,76,-60,-78,68,68,-64,-60,66,60,-76,-52,80,54,-86,-40,96,28,-90,-36,92,32,-82,-18,94,24,-96,-12,96,28,-82,-18,86,20,-78,-16,86,12,-82,-8,80,10,-78,-10,82,8,-84,2,90,8,-78,10,82,-2,-66,6,80,-4,-66,14,68,-16,-62,22,74,-24,-68,40,54,-48,-72,44,60,-60,-60,64,74,-62,-68,80,72,-70,-62,82,54,-80,-42,94,52,-90,-30,100,30,-86,-30,96,24,-92,-20,88,24,-88,-18,92,14,-74,0,90,4,-84,0,76,6,-76,-4,84,0,-74,14,76,-6,-74,10,70,0,-64,10,72,-6,-64,28,72,-18,-64,36,74,-30,-80,42,66,-50,-66,60,74,-66,-66,68,68,-78,-62,96,62,-88,-48,94,48,-84,-38,94,46,-84,-28,94,30,-90,-26,90,22,-90,-16,84,14,-78,-10,84,20,-90,-10,88,2,-80,-2,86,2,-76,0,80,2,-78,4,72,0,-72,4,70,-12,-66,20,68,-18,-66,28,74,-30,-64,44,70,-48,-70,62,74,-64,-66,72,70,-74,-60,84,58,-74,-48,98,52,-82,-44,100,44,-88,-30,92,30,-96,-22,96,18,-98,-12,100,24,-86,-18,90,6,-82,-2,86,6,-80,-2,76,8,-66,4,86,-2,-72,0,78,0,-70,2,72,0,-68,14,68,-16,-64,24,76,-26,-66,30,72,-34,-66,44,76,-44,-64,54,72,-62,-56,64,66,-66,-54,80,56,-82,-58,92,54,-82,-38,86,32,-92,-30,94,32,-94,-20,88,22,-84,-20,88,16,-86,-4,94,2,-84,-4,88,8,-78,0,80,6,-80,2,74,-4,-70,6,72,-6,-70,14,64,-6,-68,18,70,-20,-66,26,58,-32,-56,46,72,-58,-62,58,68,-60,-56,64,64,-66,-50,84,-110,-98,-132,32,122,-60,-92,74,84,-74,-78,66,62,-76,-66,56,58,-76,-60,64,54,-80,-62,64,52,-76,-38,74,30,-72,-34,72,24,-70,-12,76,20,-80,4,72,0,-76,8,74,-10,-76,14,82,-24,-90,30,94,-36,-88,36,96,-38,-100,46,96,-52,-98,56,110,-66,-96,58,86,-62,-88,64,92,-76,-90,68,72,-82,-74,70,60,-86,-58,72,54,-90,-54,68,52,-78,-48,74,34,-82,-28,78,14,-86,-6,78,-4,-78,4,80,-4,-80,10,88,-14,-82,18,90,-26,-86,26,88,-34,-96,42,92,-54,-100,48,100,-58,-110,50,102,-70,-96,66,90,-82,-86,72,86,-90,-84,80,78,-88,-70,82,60,-102,-58,70,60,-100,-54,84,40,-92,-44,82,36,-92,-26,90,8,-96,-16,90,4,-86,0,92,0,-94,6,90,-12,-92,20,104,-28,-98,22,98,-36,-104,42,104,-56,-106,50,108,-68,-108,64,106,-74,-102,74,98,-78,-100,82,98,-92,-82,94,84,-96,-78,92,72,-98,-70,94,56,-110,-54,86,48,-124,-44,98,30,-100,-30,92,32,-108,-24,96,6,-98,-6,96,0,-98,6,94,-20,-98,10,104,-26,-106,26,108,-30,-108,38,116,-62,-106,64,108,-60,-112,62,110,-76,-110,80,102,-88,-108,86,92,-86,-94,92,96,-110,-94,104,76,-114,-74,102,66,-108,-56,98,54,-120,-34,102,40,-116,-50,100,34,-116,-26,94,16,-112,-24,114,8,-106,-8,102,0,-108,0,106,-4,-114,12,100,-30,-114,30,110,-40,-106,54,104,-60,-108,48,116,-72,-108,76,112,-82,-102,80,102,-94,-100,94,100,-92,-98,100,82,-108,-82,102,66,-122,-70,106,56,-120,-56,104,50,-118,-48,104,44,-116,-36,114,32,-116,-30,110,12,-102,-14,98,10,-102,16,126,-8,-106,-10,100,-22,-102,20,104,-30,-102,38,104,-52,-110,52,106,-70,-114,68,108,-78,-108,82,108,-92,-98,90,94,-90,-98,96,86,-102,-86,98,82,-102,-82,116,70,-114,-66,104,58,-120,-60,102,56,-122,-46,104,46,-120,-36,102,28,-112,-24,104,12,-108,-12,106,6,-102,-6,100,4,-108,6,100,-20,-108,24,100,-30,-106,32,110,-34,-106,54,102,-60,-110,66,94,-66,-102,72,96,-78,-98,88,106,-94,-92,90,88,-104,-88,106,78,-110,-74,116,56,-112,-66,112,56,-118,-64,102,48,-118,-58,98,46,-126,-46,102,24,-112,-28,102,20,-110,-20,100,6,-110,0,108,0,-110,-4,110,-14,-102,22,106,-26,-98,24,104,-42,-100,52,112,-62,-104,64,102,-72,-112,74,116,-84,-100,74,108,-90,-98,88,90,-102,-86,108,88,-108,-80,100,78,-112,-72,108,58,-112,-60,110,50,-124,-50,106,36,-122,-42,108,18,-114,-42,98,20,-110,-18,104,12,-108,-10,108,2,-110,2,100,-10,-102,10,106,-20,-108,26,110,-34,-120,42,106,-54,-102,62,100,-70,-106,76,106,-76,-102,80,102,-90,-100,88,98,-100,-92,90,80,-102,-90,108,86,-118,-78,106,70,-118,-62,114,56,-122,-54,110,40,-118,-40,106,32,-116,-28,108,30,-114,-16,108,8,-108,-16,100,2,-104,-10,108,-4,-110,12,108,-8,-120,18,112,-32,-106,38,102,-46,-110,58,102,-58,-98,52,106,-72,-104,80,106,-86,-98,92,88,-88,-96,96,90,-98,-90,100,88,-118,-76,100,80,-108,-66,106,70,-110,-62,112,54,-116,-48,100,48,-124,-44,110,36,-128,-28,102,20,-126,-20,98,10,-102,-12,122,0,-106,-10,98,-6,-108,4,106,-18,-108,26,92,-32,-102,36,98,-48,-110,50,104,-60,-110,72,114,-80,-108,76,98,-86,-98,86,102,-106,-88,98,86,-102,-86,104,76,-114,-74,112,70,-116,-64,106,50,-110,-44,110,42,-108,-32,104,36,-114,-36,112,22,-104,-12,102,12,-106,-14,100,8,-110,-14,102,-6,-112,6,108,-10,-106,16,104,-24,-114,30,102,-44,-112,42,100,-68,-114,70,108,-82,-116,74,100,-88,-100,86,102,-86,-100,94,96,-104,-88,102,84,-108,-80,110,64,-114,-66,102,62,-110,-60,114,52,-122,-46,110,32,-114,-34,108,26,-110,-30,108,18,-114,-18,104,18,-104,-14,106,0,-104,4,100,-6,-110,14,108,-22,-104,28,106,-42,-112,48,106,-62,-106,62,104,-68,-106,76,98,-76,-114,80,104,-90,-104,96,96,-98,-88,104,82,-106,-78,108,68,-118,-76,110,62,-112,-66,108,54,-120,-44,104,50,-114,-38,96,36,-112,-36,104,12,-114,-24,106,14,-110,-18,104,12,-106,-2,102,-6,-110,4,100,-18,-104,14,104,-22,-106,28,104,-32,-108,42,98,-56,-98,56,92,-64,-110,72,104,-80,-110,84,98,-88,-96,86,92,-100,-88,98,82,-108,-78,102,68,-110,-70,110,60,-122,-40,110,36,-118,-48,104,32,-116,-34,102,24,-112,-22,102,10,-104,-10,102,4,-104,-4,98,-2,-108,8,102,-10,-104,24,88,-28,-102,30,96,-54,-96,50,98,-60,-94,60,96,-72,-100,cylindrical
278,-188,-114,34,100,-86,-122,60,118,-118,-120,104,86,-120,-64,116,42,-108,-80,130,38,-114,-30,126,36,-122,-10,140,8,-128,-30,130,0,-136,-2,114,-38,-110,0,128,-38,-142,26,122,-2,-162,40,102,-28,-92,16,90,-54,-78,52,102,-68,-122,86,116,-58,-128,68,118,-78,-128,118,96,-84,-104,104,86,-102,-86,118,106,-110,-110,88,96,-114,-68,108,64,-126,-72,122,44,-128,-56,100,4,-110,-4,120,-2,-130,6,124,8,-128,0,146,-12,-104,-22,106,-8,-144,10,120,-26,-124,10,108,-46,-76,16,146,-56,-100,22,124,-42,-102,40,114,-68,-60,94,118,-52,-190,74,108,-98,-88,112,80,-112,-74,46,132,-126,-106,140,72,-98,-84,140,56,-118,-80,166,106,-150,-34,134,32,-124,-20,148,24,-170,-20,132,-4,-150,4,132,4,-146,-6,186,-54,-128,2,138,-26,-144,52,78,-18,-136,34,106,-18,-106,28,116,-22,-108,52,94,-66,-132,74,118,-74,-114,114,88,-108,-136,122,114,-110,-84,106,106,-110,-104,140,100,-116,-108,130,36,-100,-52,98,68,-138,-62,112,50,-140,-70,130,18,-144,-14,154,18,-142,-32,148,28,-152,0,166,-8,-110,-32,138,-8,-114,30,124,-24,-108,36,130,-28,-124,36,100,-22,-90,14,92,-46,-106,18,114,-50,-108,70,122,-86,-102,76,112,-96,-128,130,62,-106,-112,120,116,-90,-102,104,116,-130,-72,114,72,-138,-66,116,68,-128,-66,140,26,-120,-26,108,12,-142,0,146,20,-120,-6,146,-16,-134,-4,134,-6,-136,-8,150,-32,-134,24,118,-12,-158,36,100,-20,-130,18,128,-18,-116,18,150,-58,-122,40,98,-76,-106,72,116,-64,-116,72,120,-118,-98,108,132,-112,-114,108,122,-142,-92,158,74,-112,-92,138,82,-168,-78,116,60,-132,-50,152,28,-146,-24,142,24,-160,-10,138,22,-112,0,132,0,-134,-4,120,-12,-92,32,132,-32,-120,-4,122,-10,-100,28,110,-66,-76,34,116,-28,-120,20,120,-68,-130,80,128,-84,-108,82,100,-104,-122,134,82,-102,-116,120,92,-130,-116,140,66,-146,-84,134,60,-128,-76,132,44,-154,-34,184,20,-126,-38,144,12,-112,0,152,0,-142,0,138,4,-102,-12,136,16,-156,0,128,-14,-120,24,124,-12,-142,28,140,-10,-136,28,132,-58,-116,28,122,-56,-116,60,122,-80,-106,80,102,-80,-120,100,104,-106,-116,130,88,-106,-104,110,130,-158,-84,114,108,-150,-96,124,82,-138,-64,140,58,-150,-46,176,8,-146,-32,144,18,-124,-26,136,-4,-158,4,144,-6,-118,26,146,-4,-140,0,128,-14,-142,22,136,-38,-136,18,118,-18,-130,36,122,-32,-136,56,98,-58,-98,52,106,-50,-120,68,134,-116,-126,110,100,-108,-144,114,84,-110,-100,118,94,-136,-94,162,74,-130,-64,140,68,-162,-70,140,52,-146,-80,144,24,-136,0,128,12,-142,-6,148,14,-166,4,142,32,-172,30,114,-6,-134,8,130,-28,-130,20,132,-42,-146,38,128,-36,-120,24,112,-58,-98,32,96,-74,-114,88,88,-72,-132,102,126,-92,-88,106,94,-126,-118,134,110,-134,-122,136,76,-124,-78,134,58,-134,-54,130,48,-144,-10,128,4,-166,0,88,14,-134,0,170,-30,-156,-16,138,-16,-132,-16,162,6,-128,-10,144,-30,-136,30,120,-34,-140,44,106,-42,-112,48,118,-54,-120,54,114,-66,-134,68,108,-100,-94,90,118,-98,-102,98,120,-112,-120,138,92,-136,-100,130,98,-108,-102,114,84,-122,-76,130,42,-148,-64,144,18,-140,-38,138,52,-178,10,132,0,-144,-4,146,2,-162,-18,148,10,-154,14,146,-24,-132,12,124,-30,-138,40,134,-50,-134,44,116,-44,-146,62,80,-56,-138,80,106,-64,-136,76,106,-100,-98,70,124,-110,-116,98,106,-116,-116,118,96,-112,-100,132,82,-114,-96,114,76,-144,-74,132,58,-136,-38,154,20,-152,-14,142,40,-180,-2,156,-2,-134,2,138,-4,-138,10,148,-10,-164,24,124,-10,-132,26,124,-34,-122,40,120,-46,-122,40,128,-52,-108,62,118,-78,-126,78,100,-90,-118,100,118,-88,-132,114,106,-108,-116,104,118,-116,-106,126,80,-148,-86,126,96,-190,-74,130,64,-134,-62,146,24,-142,-20,148,28,-140,-14,138,12,-144,6,120,2,-126,12,136,-36,-146,8,144,-16,-136,14,122,-24,-140,28,128,-30,-130,30,106,-28,-104,46,122,-46,-122,66,118,-60,-132,92,122,-86,-106,112,124,-132,-110,118,96,-146,-104,122,108,-138,-102,124,68,-144,-66,140,48,-150,-68,152,38,-132,-20,154,20,-152,-18,142,14,-140,-12,150,-2,-150,0,152,4,-134,6,134,-20,-138,30,128,-22,-128,28,146,-38,-120,58,122,-52,-110,34,82,-54,-136,64,122,-80,-124,78,122,-90,-116,92,126,-84,-120,124,108,-122,-110,130,94,-124,-82,90,92,-140,-82,144,76,-156,-48,130,42,-140,-32,140,18,-138,-18,136,18,-118,-10,146,4,-144,10,126,8,-140,194,62,-114,-54,126,36,-98,-4,126,2,-96,16,116,-24,-92,34,90,-12,-100,28,88,-34,-100,44,94,-44,-92,62,88,-46,-86,68,86,-56,-64,90,78,-66,-62,88,82,-80,-54,68,74,-70,-42,96,30,-68,-22,88,8,-92,-20,98,38,-96,-30,82,24,-92,-26,90,32,-110,-2,100,10,-92,2,108,-4,-102,-2,100,12,-80,-2,102,-8,-92,12,100,-12,-94,24,102,-28,-78,50,98,-58,-84,66,90,-66,-88,66,90,-48,-88,78,76,-52,-60,76,76,-56,-60,74,64,-68,-56,94,20,-74,-60,92,40,-74,-34,78,28,-80,-20,94,2,-102,-28,90,58,-80,-26,98,8,-112,0,114,-8,-72,-10,110,10,-112,4,96,-8,-108,14,108,-10,-126,-6,112,-24,-106,42,98,-46,-116,52,116,-40,-90,62,108,-70,-92,60,90,-62,-110,86,92,-60,-76,84,84,-86,-34,90,62,-70,-34,74,34,-74,-44,70,22,-86,-24,92,42,-88,-26,96,28,-122,-20,112,28,-120,-16,118,0,-106,-16,98,4,-112,-6,108,6,-112,26,100,-34,-90,16,108,-20,-84,28,100,-18,-86,44,110,-48,-104,52,110,-38,-102,50,104,-54,-108,70,68,-52,-78,74,72,-70,-64,78,58,-84,-58,82,52,-84,-32,78,14,-60,-16,90,26,-58,-20,78,24,-94,-30,98,14,-84,-16,116,24,-110,6,108,10,-120,-14,88,2,-98,-12,104,-6,-102,10,120,-12,-100,14,104,-16,-102,40,112,-42,-84,54,104,-60,-94,54,90,-54,-90,72,86,-54,-86,72,96,-56,-88,80,76,-70,-66,74,82,-84,-40,82,62,-66,-40,72,48,-66,-58,94,44,-76,-20,98,28,-100,-24,86,30,-92,-20,102,18,-110,-26,100,18,-102,-12,118,12,-136,12,106,0,-112,8,126,-2,-96,26,112,-26,-108,48,110,-34,-106,50,116,-56,-90,50,78,-56,-86,66,78,-60,-70,70,48,-76,-64,84,60,-68,-48,64,46,-76,-30,106,14,-72,-40,80,26,-64,-30,78,34,-90,-36,98,22,-92,-10,102,22,-122,0,112,18,-104,2,118,16,-114,16,112,-2,-116,24,114,-12,-106,40,114,-32,-122,42,106,-38,-104,62,84,-62,-88,62,96,-68,-92,62,68,-58,-78,54,94,-58,-70,68,76,-74,-60,76,72,-78,-64,72,64,-72,-54,94,40,-72,-36,90,30,-92,-24,102,26,-96,-16,98,16,-104,-8,114,20,-106,-4,116,14,-108,-14,126,4,-94,-8,138,0,-98,4,122,-12,-106,22,118,-24,-128,54,120,-40,-104,54,88,-54,-94,64,102,-62,-92,72,82,-72,-84,66,78,-60,-74,72,74,-68,-72,82,66,-70,-42,78,50,-78,-40,74,42,-82,-20,100,24,-80,-18,86,30,-80,-30,98,28,-100,-14,118,28,-104,2,108,12,-112,4,116,0,-126,10,114,-18,-110,18,124,-12,-108,22,112,-12,-98,48,106,-56,-88,62,102,-54,-96,62,108,-66,-88,44,108,-78,-74,74,80,-70,-72,78,68,-76,-52,84,68,-80,-50,88,38,-72,-30,90,20,-82,-6,100,30,-92,-12,96,28,-100,-18,98,12,-100,-12,118,20,-116,-6,120,20,-112,2,114,-12,-110,22,110,-22,-98,38,110,-54,-98,64,122,-68,-68,60,92,-62,-106,76,106,-48,-88,70,90,-52,-94,56,80,-54,-64,76,84,-76,-54,86,66,-84,-44,96,36,-88,-32,94,36,-76,-30,86,34,-88,-22,110,10,-96,-22,102,6,-102,-14,106,20,-116,0,124,12,-118,0,110,0,-96,4,110,-8,-108,34,114,-16,-110,36,110,-32,-100,34,114,-60,-92,68,110,-56,-90,64,100,-52,-86,50,94,-68,-80,74,86,-68,-62,78,66,-86,-66,92,52,-84,-38,90,50,-94,-10,92,46,-100,-22,92,32,-90,-20,104,14,-90,-12,110,26,-92,-8,110,16,-98,-4,114,4,-112,-2,108,-2,-96,16,116,-2,-100,30,108,-34,-110,50,116,-48,-102,46,118,-58,-98,58,98,-68,-84,70,86,-66,-86,72,92,-70,-66,74,70,-76,-62,86,52,-86,-38,94,50,-84,-38,90,30,-88,-30,100,30,-96,-12,106,22,-100,-18,102,26,-112,-12,98,16,-100,-18,106,12,-106,2,128,4,-106,2,146,-4,-106,12,114,-20,-102,48,116,-44,-106,50,98,-50,-98,52,94,-62,-78,70,78,-68,-78,84,86,-60,-78,76,72,-68,-60,80,64,-70,-54,82,54,-70,-34,76,26,-82,-36,82,32,-84,-28,86,36,-102,-34,94,20,-110,-20,112,20,-114,-12,130,12,-104,0,114,8,-110,14,118,-16,-112,30,120,-14,-110,40,104,-42,-110,50,108,-52,-100,52,98,-56,-94,60,108,-56,-94,60,88,-66,-82,76,86,-68,-68,82,60,-78,-66,82,48,-94,-48,88,36,-78,-10,96,46,-84,-34,100,26,-92,-32,96,22,-92,-22,90,24,-108,-10,112,16,-120,-8,114,-2,-86,4,118,0,-106,6,118,-18,-102,28,108,-36,-102,58,102,-52,-94,58,88,-58,-92,62,106,-62,-84,52,86,-62,-290,110,86,-144,-94,148,108,-116,-114,136,124,-150,-116,144,100,-148,-90,154,100,-174,-66,176,44,-178,-48,174,8,-194,-12,186,16,-180,-12,178,-4,-184,28,154,-20,-176,40,166,-42,-164,30,178,-88,-140,58,128,-56,-126,80,122,-74,-140,80,136,-96,-130,90,144,-96,-130,114,118,-140,-114,116,122,-150,-118,138,114,-148,-128,136,118,-136,-114,150,90,-150,-80,162,72,-166,-48,170,56,-168,-16,152,12,-166,-6,180,-6,-172,-18,172,-14,-192,12,156,-6,-154,6,170,-28,-164,40,160,-36,-128,50,126,-40,-154,66,118,-58,-136,78,116,-80,-138,92,104,-114,-126,78,166,-106,-118,128,106,-134,-104,130,102,-106,-148,142,124,-156,-94,130,112,-170,-86,156,94,-178,-100,176,38,-170,-44,174,28,-172,-40,188,14,-182,6,186,-10,-170,10,184,0,-210,34,158,-26,-168,32,158,-60,-128,20,144,-54,-138,50,140,-56,-130,62,138,-80,-128,86,136,-100,-140,106,134,-124,-102,132,132,-144,-126,124,118,-116,-116,134,118,-166,-112,154,118,-164,-66,140,84,-146,-84,164,68,-160,-52,176,48,-188,-18,182,8,-196,-18,182,8,-188,-10,188,-22,-182,24,154,-2,-170,12,152,-44,-162,42,142,-54,-150,54,138,-62,-116,44,120,-62,-124,66,124,-68,-140,96,130,-104,-126,108,112,-126,-120,108,132,-142,-96,140,122,-136,-114,130,110,-136,-120,162,94,-154,-92,154,80,-148,-80,158,66,-180,-42,150,30,-156,-16,170,0,-184,-16,160,-2,-180,10,178,-16,-184,18,166,-20,-172,38,168,-48,-152,42,160,-58,-138,40,140,-52,-154,54,136,-68,-152,82,126,-80,-120,106,112,-98,-124,100,114,-100,-128,142,108,-128,-126,142,110,-140,-124,166,88,-166,-90,146,98,-164,-96,178,74,-162,-70,160,44,-180,-44,182,10,-178,-12,180,0,-176,-8,168,-20,-170,18,174,-24,-158,32,144,-56,-164,54,146,-28,-152,50,122,-72,-136,80,120,-76,-122,62,130,-56,-126,96,128,-114,-122,114,108,-114,-110,132,118,-148,-106,120,112,-144,-106,146,110,-150,-96,172,90,-168,-78,160,70,-158,-64,170,42,-206,-24,168,18,-174,-10,156,-4,-196,10,186,-12,-176,10,160,-12,-182,8,182,-24,-172,36,144,-50,-152,44,154,-56,-154,44,138,-62,-132,74,120,-72,-126,92,120,-96,-136,102,114,-106,-108,108,122,-126,-120,118,126,-160,-110,136,104,-136,-134,168,100,-168,-112,160,110,-168,-100,160,74,-170,-70,178,46,-196,-28,174,30,-176,-18,176,20,-180,0,188,-16,-178,12,160,-28,-174,20,172,-30,-158,34,168,-48,-156,58,146,-62,-144,52,140,-68,-130,74,138,-102,-124,78,114,-88,-126,82,126,-98,-134,134,124,-150,-106,132,134,-144,-114,146,104,-148,-108,158,102,-178,-84,160,68,-172,-74,184,64,-174,-46,174,44,-190,-18,178,-6,-178,-10,180,-10,-186,0,186,-14,-176,2,188,-46,-156,30,162,-36,-152,50,138,-48,-152,62,150,-74,-132,66,132,-70,-128,98,112,-78,-130,90,124,-114,-106,104,126,-122,-142,118,110,-136,-110,144,112,-158,-116,156,116,-164,-82,152,84,-164,-76,164,50,-174,-48,184,14,-182,-10,190,4,-156,-14,182,0,-198,14,188,-2,-180,24,170,-16,-186,22,156,-24,-186,42,156,-52,-148,56,154,-78,-126,66,130,-74,-136,66,128,-80,-122,100,134,-102,-120,116,112,-116,-120,124,112,-122,-126,132,118,-162,-110,162,100,-164,-108,144,112,-164,-98,164,76,-166,-64,180,66,-180,-32,176,24,-174,-32,202,-14,-192,2,178,-12,-182,10,184,-4,-184,18,178,-36,-182,42,158,-40,-152,52,162,-64,-142,68,142,-78,-130,74,146,-86,-122,86,136,-102,-116,96,136,-108,-120,126,104,-116,-136,130,114,-136,-116,140,116,-158,-108,144,110,-162,-90,150,94,-160,-98,170,64,-176,-56,178,32,-192,-24,184,4,-180,-18,198,-8,-194,18,170,-24,-170,16,166,-34,-168,32,172,-52,-154,38,154,-60,-142,64,140,-76,-152,70,134,-70,-140,78,122,-92,-126,102,130,-108,-122,110,126,-132,-126,126,126,-130,-114,138,122,-140,-122,144,108,-160,-98,166,86,-162,-102,182,74,-160,-60,156,46,-182,-32,174,16,-180,-26,182,4,-178,2,184,-26,-168,10,170,-26,-176,36,170,-40,-166,42,156,-52,-148,48,156,-68,-146,58,138,-68,-126,66,126,-82,-130,82,128,-102,-132,106,138,-116,-126,122,108,-128,-126,154,114,-142,-106,146,102,-146,-118,164,100,-154,-82,168,68,-170,-64,174,52,-182,-40,174,18,-188,-18,190,10,-182,-4,178,0,-194,8,184,-18,-190,16,182,-26,-178,22,164,-54,-148,46,150,-60,-154,68,138,-80,-134,78,124,-80,-122,78,140,-96,-128,102,134,-104,-124,112,118,-122,-132,122,118,-148,-118,150,116,-152,-102,146,92,-144,-106,160,90,-172,-86,180,54,-172,-44,176,20,-178,-18,178,10,-184,-14,172,2,-198,-4,180,-16,-168,8,178,cylindrical
274,-110,-122,-58,124,16,-136,0,130,-20,-126,14,126,-40,-122,44,112,-54,-148,38,112,-76,-124,82,120,-100,-106,86,130,-124,-110,106,82,-82,-104,108,82,-120,-102,126,54,-120,-72,106,52,-116,-58,132,16,-140,-46,152,2,-126,-28,122,24,-142,-18,130,4,-120,-8,128,10,-142,6,126,14,-106,-14,102,2,-122,36,114,-2,-114,-2,120,-20,-118,16,128,-26,-134,36,118,-36,-130,72,132,-62,-126,78,122,-90,-120,120,122,-114,-116,116,92,-100,-102,118,104,-130,-84,122,62,-124,-66,122,56,-126,-62,124,26,-122,-50,118,18,-120,-24,142,6,-128,-10,140,30,-120,-26,126,4,-116,6,124,-2,-122,0,128,-20,-110,-10,134,0,-134,20,106,-28,-118,44,114,-42,-92,54,120,-76,-136,78,108,-88,-108,88,108,-108,-112,112,118,-106,-106,108,90,-104,-84,116,66,-114,-86,112,68,-134,-38,106,32,-126,-46,122,36,-134,-16,136,0,-128,-12,132,-2,-132,-12,146,-26,-122,4,138,4,-124,-14,122,-8,-120,22,94,-18,-120,22,100,-8,-116,74,98,-48,-108,44,102,-50,-126,76,114,-90,-124,94,110,-84,-118,96,100,-88,-98,110,90,-110,-98,128,92,-108,-88,128,62,-128,-74,116,60,-132,-38,120,36,-118,-6,128,32,-130,-22,124,12,-124,-16,132,6,-144,-16,128,6,-134,-18,130,6,-128,6,124,-6,-128,4,122,-22,-120,18,118,-14,-132,32,144,-56,-130,56,112,-62,-134,84,116,-84,-118,82,116,-116,-112,110,118,-110,-110,112,94,-106,-88,120,86,-132,-88,112,76,-134,-60,122,44,-106,-44,128,32,-148,-16,126,26,-138,-4,130,28,-120,-26,130,0,-144,-2,130,6,-126,0,118,0,-124,18,118,-20,-130,0,116,-20,-118,14,126,-38,-112,54,122,-82,-126,84,102,-74,-118,90,154,-96,-128,106,134,-120,-110,112,94,-112,-96,118,84,-112,-86,118,74,-120,-84,122,50,-138,-66,126,28,-116,-18,134,40,-150,-14,110,38,-112,-24,118,24,-120,-12,120,4,-124,-8,128,-24,-148,4,130,-8,-144,18,116,-20,-132,20,116,-30,-120,42,112,-60,-96,56,118,-74,-100,74,116,-90,-120,104,102,-90,-114,90,108,-118,-116,106,92,-116,-86,114,86,-138,-80,116,78,-126,-68,142,82,-130,-44,116,20,-118,-16,150,32,-138,-18,122,18,-122,-16,116,4,-136,-24,134,4,-120,0,132,-2,-130,10,112,4,-132,16,130,-4,-134,8,124,-36,-116,36,118,0,-142,50,110,-64,-112,66,116,-74,-130,82,112,-106,-110,82,110,-102,-104,104,104,-130,-96,120,82,-128,-94,112,58,-120,-52,124,42,-126,-46,132,30,-126,-20,132,22,-140,-10,126,22,-120,-10,132,12,-140,0,126,6,-152,0,128,14,-126,8,130,-8,-128,22,136,-16,-124,14,120,-36,-126,56,128,-68,-112,66,130,-68,-134,90,114,-90,-124,108,132,-108,-120,106,108,-100,-108,106,88,-112,-90,116,84,-124,-56,110,58,-128,-52,140,48,-112,-28,124,36,-126,-10,108,16,-148,-4,126,10,-120,-20,100,18,-120,-6,132,-8,-130,10,126,-4,-122,2,136,-24,-116,22,112,-44,-120,64,114,-70,-120,74,122,-90,-138,104,106,-106,-110,102,126,-124,-106,118,120,-124,-92,120,82,-118,-84,136,82,-146,-66,128,42,-138,-52,138,38,-138,-36,130,34,-148,0,136,2,-146,-24,134,14,-138,-24,146,-12,-136,-10,126,-2,-114,-24,140,-26,-122,24,126,-26,-138,38,126,-54,-138,66,116,-70,-134,88,124,-74,-128,90,120,-104,-118,90,122,-112,-116,116,114,-92,-100,114,84,-122,-76,118,70,-128,-58,134,78,-170,-54,132,66,-138,-44,146,12,-136,-12,146,8,-148,-24,122,0,-128,-8,138,4,-130,-14,132,2,-140,10,122,0,-144,8,140,-24,-136,18,134,-36,-132,26,126,-28,-138,40,122,-90,-128,94,132,-86,-144,88,112,-84,-126,102,110,-112,-110,102,104,-118,-94,126,84,-128,-92,142,76,-112,-76,126,60,-128,-66,140,58,-128,-44,136,42,-130,-48,136,34,-138,-20,108,22,-140,-8,136,-2,-128,-6,134,-2,-142,30,142,-28,-140,14,126,-46,-144,36,136,-58,-138,62,126,-58,-134,78,122,-74,-140,100,132,-116,-128,104,112,-112,-120,118,110,-124,-112,126,100,-86,-124,136,76,-112,-78,134,58,-136,-54,144,48,-162,-38,140,38,-144,-26,124,22,-136,-6,132,14,-142,-4,124,4,-144,-2,142,6,-136,8,116,-8,-132,12,124,-30,-148,18,116,-32,-128,28,118,-48,-130,30,128,-72,-144,70,126,-86,-122,100,140,-98,-136,104,120,-96,-126,114,102,-118,-110,116,108,-142,-86,128,70,-132,-74,142,68,-138,-68,142,46,-154,-26,142,24,-154,-30,152,22,-162,-44,146,10,-128,4,144,14,-138,-2,152,-34,-138,8,146,-24,-144,28,134,-36,-134,38,130,-58,-140,76,138,-90,-128,96,134,-94,-142,120,124,-114,-118,106,128,-124,-126,120,120,-146,190,92,-54,-88,78,70,-74,-42,92,38,-68,-28,80,36,-66,-36,70,42,-54,-30,86,30,-86,-26,104,20,-86,-26,110,20,-104,2,82,4,-88,4,102,4,-108,18,98,-2,-86,26,94,-14,-98,48,106,-30,-102,60,90,-42,-90,46,86,-44,-80,62,74,-54,-70,56,84,-62,-72,54,50,-46,-48,68,50,-78,-52,62,40,-56,-38,70,42,-64,-32,66,44,-76,-36,66,44,-86,-32,84,34,-80,-26,96,26,-110,-22,104,24,-96,2,102,10,-100,0,108,6,-102,14,106,-12,-94,28,102,-20,-86,46,102,-30,-70,46,84,-44,-84,54,86,-50,-90,44,70,-40,-60,56,66,-62,-52,64,62,-56,-52,70,44,-50,-42,56,46,-56,-30,68,42,-70,-26,74,12,-76,-24,92,38,-88,-18,92,24,-96,-16,100,14,-100,-24,98,12,-92,0,94,2,-92,20,98,-8,-84,12,112,-28,-82,44,96,-28,-82,42,92,-48,-84,62,80,-54,-82,60,80,-50,-80,76,76,-62,-70,60,58,-54,-50,66,46,-70,-38,68,46,-72,-22,62,32,-94,-22,80,24,-70,-18,82,28,-80,-26,94,24,-96,-18,92,20,-92,-12,94,4,-92,0,100,8,-94,0,104,-4,-96,14,102,-10,-88,20,102,-32,-88,42,90,-48,-86,50,84,-42,-78,54,76,-46,-68,52,82,-48,-66,54,72,-44,-62,62,62,-56,-48,68,58,-58,-38,70,44,-64,-34,72,46,-66,-50,84,42,-78,-26,76,34,-88,-24,100,20,-86,-18,112,14,-100,-18,102,18,-100,0,98,2,-106,2,112,0,-90,12,112,-10,-104,26,92,-32,-96,42,104,-44,-88,50,96,-48,-80,52,82,-40,-74,62,78,-50,-64,56,66,-58,-52,64,56,-70,-46,78,52,-54,-30,68,36,-66,-32,68,40,-80,-28,94,36,-96,-18,90,22,-94,-42,94,28,-104,-28,110,20,-98,-6,112,8,-102,14,94,-4,-102,6,104,0,-90,32,110,-10,-90,44,92,-44,-92,36,98,-40,-76,42,72,-42,-64,48,66,-44,-62,62,64,-50,-64,72,78,-62,-52,60,66,-66,-42,76,46,-68,-36,70,36,-82,-26,74,16,-78,-26,96,18,-86,-16,92,24,-100,-12,96,14,-86,-14,106,14,-98,-6,102,2,-100,8,110,-4,-90,10,98,-16,-106,6,100,-28,-90,52,92,-46,-98,48,98,-46,-82,58,80,-46,-66,60,82,-44,-66,58,74,-56,-62,60,68,-70,-50,64,56,-64,-52,64,58,-58,-38,78,44,-76,-34,56,48,-74,-22,90,24,-78,-26,94,32,-88,-22,104,14,-86,-12,100,6,-92,-4,108,4,-102,2,108,10,-94,22,104,-24,-94,38,98,-26,-100,48,94,-44,-86,50,96,-48,-76,50,78,-50,-72,56,74,-58,-64,54,76,-58,-54,52,60,-60,-48,66,50,-66,-50,68,44,-64,-34,74,38,-84,-32,90,30,-82,-38,88,32,-96,-22,96,26,-96,-38,108,16,-98,-12,90,12,-96,0,104,4,-92,2,98,-20,-90,24,106,-26,-100,28,84,-36,-88,34,88,-48,-68,58,92,-46,-72,54,72,-44,-44,52,60,-54,-60,64,64,-62,-50,58,50,-62,-48,74,42,-64,-34,82,40,-84,-24,94,32,-90,-26,98,36,-102,-10,104,20,-98,-20,110,12,-104,-22,110,0,-100,8,104,-4,-108,4,110,-12,-96,38,110,-28,-102,38,96,-38,-82,40,96,-60,-82,60,96,-46,-74,58,76,-40,-76,64,68,-50,-54,66,50,-42,-46,70,50,-66,-36,72,44,-66,-36,82,46,-82,-28,88,32,-90,-30,86,26,-88,-18,102,18,-82,-18,102,12,-94,-12,86,2,-96,2,102,-6,-94,12,100,-16,-102,18,118,-22,-98,22,100,-28,-104,54,90,-50,-92,62,96,-42,-74,66,66,-52,-66,56,64,-46,-62,64,72,-58,-50,64,62,-64,-54,76,52,-66,-52,80,44,-66,-32,76,42,-72,-36,98,32,-98,-34,96,38,-96,-16,90,24,-90,-4,104,16,-92,0,106,6,-102,4,110,0,-106,4,100,-14,-98,24,100,-18,-102,24,92,-24,-92,34,88,-28,-84,44,86,-46,-58,46,84,-46,-70,64,64,-50,-52,62,66,-66,-58,72,50,-66,-44,76,48,-76,-42,86,40,-80,-38,80,40,-80,-24,84,30,-94,-24,110,28,-88,-16,108,16,-100,-10,108,12,-102,-4,86,12,-102,10,96,-4,-98,18,108,-18,-102,32,120,-34,-90,42,100,-44,-80,48,90,-60,-72,54,78,-54,-66,60,78,-54,-62,58,64,-60,-56,66,60,-66,-38,78,62,-62,-34,74,42,-72,-28,80,40,-66,-28,78,40,-78,-26,102,24,-92,-32,98,28,-96,-20,98,20,-94,-8,110,14,-94,-8,108,-2,-100,10,110,-8,-104,16,112,-16,-98,32,108,-32,-100,50,98,-38,-90,48,86,-42,-96,42,76,-58,-62,60,68,-52,-58,80,64,-60,-54,72,64,-70,-48,74,44,-76,-34,86,36,-86,-40,100,32,-102,-32,102,36,-108,-24,102,18,-102,-22,100,20,-96,-16,116,-6,-308,-8,92,-48,-108,48,122,-42,-118,36,118,-44,-134,52,132,-64,-116,72,140,-82,-112,94,116,-106,-116,106,104,-108,-120,130,100,-118,-88,114,100,-136,-90,140,96,-134,-76,136,68,-136,-64,144,42,-154,-24,154,26,-168,-12,160,16,-144,-16,164,0,-152,2,142,-8,-150,6,152,-20,-134,2,130,-24,-118,18,134,-44,-120,34,120,-38,-126,48,112,-50,-124,62,128,-60,-120,70,112,-96,-120,86,114,-104,-114,104,104,-116,-112,114,94,-132,-96,118,92,-130,-112,136,82,-134,-70,136,56,-148,-54,142,46,-158,-28,134,30,-150,-6,144,2,-162,4,152,-10,-148,-6,136,-6,-150,16,128,-28,-142,22,126,-34,-128,40,110,-32,-128,34,128,-56,-118,56,106,-72,-108,70,96,-82,-118,92,120,-94,-114,106,104,-104,-102,122,108,-126,-106,122,96,-134,-92,128,70,-140,-68,136,78,-150,-66,150,34,-140,-40,148,26,-152,-24,156,0,-154,2,150,0,-148,12,144,-12,-158,26,132,-26,-134,24,126,-24,-126,36,134,-46,-112,46,114,-54,-108,46,118,-78,-106,62,108,-74,-104,68,118,-94,-102,102,112,-108,-104,104,108,-118,-98,108,98,-130,-100,122,94,-154,-88,126,82,-142,-64,140,58,-144,-48,150,28,-152,-32,146,0,-152,-20,156,0,-150,-4,144,-2,-150,10,148,-10,-142,16,138,-22,-134,18,122,-42,-130,34,118,-38,-126,48,116,-56,-122,46,126,-66,-132,74,116,-76,-108,88,122,-108,-112,96,112,-106,-112,118,108,-120,-112,122,102,-130,-98,132,90,-136,-94,140,82,-144,-84,154,58,-140,-46,138,36,-152,-30,160,6,-150,-22,154,-6,-158,-14,138,-4,-142,10,150,-22,-146,18,136,-30,-134,26,128,-44,-124,38,118,-38,-118,48,118,-42,-136,64,106,-72,-120,92,114,-90,-104,86,112,-98,-130,112,114,-118,-122,126,104,-136,-96,124,80,-128,-90,132,88,-140,-76,138,64,-152,-60,150,46,-152,-28,144,12,-154,-26,166,-4,-142,-12,136,-4,-144,0,146,-24,-144,16,144,-24,-140,40,136,-30,-134,38,130,-54,-114,48,124,-54,-116,68,116,-58,-112,80,102,-86,-118,88,100,-90,-116,106,114,-116,-102,106,112,-118,-110,134,114,-128,-96,136,74,-136,-84,146,72,-144,-70,154,60,-162,-64,160,28,-152,-26,146,8,-166,-20,156,-2,-144,-14,142,-2,-142,6,142,-8,-156,14,132,-24,-140,30,130,-38,-126,28,132,-50,-136,38,128,-50,-132,60,118,-66,-120,44,122,-82,-110,80,110,-92,-118,90,124,-104,-112,114,112,-110,-108,118,102,-124,-104,138,96,-140,-94,144,82,-144,-64,140,50,-150,-54,158,32,-156,-28,146,10,-158,-20,156,-2,-154,-6,144,-12,-148,12,152,-22,-140,22,146,-30,-140,22,124,-42,-136,38,132,-56,-138,50,126,-52,-126,68,124,-80,-130,80,120,-90,-126,92,128,-104,-116,104,124,-128,-114,118,114,-122,-104,128,100,-134,-96,128,88,-140,-82,152,56,-148,-56,148,46,-154,-40,146,20,-156,-20,154,-6,-148,-10,164,-14,-150,6,138,-10,-132,10,140,-26,-144,36,132,-42,-136,42,128,-42,-138,50,122,-60,-122,64,116,-84,-122,84,118,-94,-120,106,122,-116,-118,114,108,-118,-118,132,108,-138,-108,138,92,-142,-96,140,88,-146,-82,158,56,-160,-50,158,42,-154,-32,156,20,-160,-14,168,-6,-168,4,156,0,-156,-2,156,-8,-156,28,144,-28,-144,26,126,-24,-150,52,124,-58,-130,54,134,-72,-134,76,128,-86,-118,86,128,-104,-122,98,124,-112,-124,112,116,-120,-116,126,112,-134,-108,126,102,-138,-90,140,78,-144,-76,154,52,-154,-68,178,42,-160,-48,168,22,-166,-8,164,-2,-170,-4,166,-4,-144,4,148,-8,-154,10,152,-18,-152,12,142,-38,-138,30,148,-42,-146,46,144,-52,-136,56,130,-62,-138,56,146,-70,-130,96,134,-102,-136,102,134,-104,-122,100,118,-124,-124,124,112,-126,-122,132,102,-144,-98,142,96,-156,-78,140,74,-152,-68,156,64,-164,-62,162,34,-168,-32,162,18,-168,-12,162,0,-154,-2,158,-22,-154,20,142,-30,-150,26,138,-50,-136,56,142,-46,-128,70,136,-66,-134,74,142,-82,-134,74,128,-98,-124,100,134,-120,-132,120,126,-132,-120,124,124,-138,-116,140,112,-148,-100,124,108,-160,-90,144,82,-164,-72,160,50,-168,-48,168,28,-170,-28,166,16,-164,-8,160,-2,-158,0,164,-16,-156,10,154,-22,-156,16,158,-36,-138,34,134,-44,-144,46,142,-52,-130,60,128,-60,-132,70,130,-62,-130,94,132,-106,-126,98,122,-114,-128,114,130,-128,-122,116,124,-140,-112,130,104,-134,-102,152,88,-160,-80,158,72,-174,-68,164,54,-170,-42,182,10,-168,-18,172,12,-174,-10,204,36,-168,4,138,-34,-162,10,150,-32,-162,46,144,-42,-156,50,146,-56,-142,68,134,-70,-130,76,142,-94,-140,102,132,-114,-132,108,132,-126,-126,136,124,-124,-126,140,124,-150,-120,166,cylindrical
228,-200,-114,12,104,-66,-132,96,104,-100,-124,94,90,-102,-76,128,90,-136,-68,106,56,-92,-62,98,54,-124,-58,114,42,-116,-44,126,26,-140,-10,100,22,-118,-28,130,26,-134,-8,96,14,-110,-8,108,-12,-98,6,110,0,-128,14,104,-22,-116,38,106,-28,-122,50,124,-50,-114,68,108,-82,-106,86,144,-114,-114,90,100,-96,-96,90,88,-110,-82,86,72,-114,-50,106,46,-114,-60,126,18,-110,-32,76,14,-108,-38,118,26,-132,-18,138,26,-112,-10,134,-18,-118,12,122,0,-120,0,100,10,-122,-4,116,-2,-116,4,114,6,-112,10,120,-30,-112,30,116,-60,-114,70,120,-74,-126,78,116,-74,-128,80,92,-78,-106,90,98,-104,-60,104,84,-114,-74,86,80,-88,-72,140,50,-112,-54,106,60,-140,-20,104,20,-118,-30,104,22,-130,-18,106,0,-122,-10,104,-12,-108,-12,142,-8,-120,-6,122,6,-112,-14,106,14,-110,2,116,-20,-122,20,90,-32,-112,44,112,-54,-118,66,120,-76,-116,102,106,-88,-120,80,114,-104,-100,94,92,-104,-98,104,76,-84,-88,110,54,-108,-60,114,48,-100,-46,132,30,-118,-38,110,28,-128,-20,130,28,-138,-10,120,-2,-106,0,92,2,-110,6,120,2,-100,6,114,2,-126,4,112,-12,-124,22,100,-38,-132,60,102,-62,-108,52,112,-74,-106,84,98,-70,-100,80,114,-94,-104,102,92,-116,-78,86,60,-82,-80,98,60,-98,-62,122,44,-114,-36,102,32,-122,2,92,16,-110,-24,120,8,-110,-8,104,10,-108,-8,106,10,-110,0,114,14,-106,2,114,-2,-106,4,122,-18,-118,32,136,-28,-118,44,112,-56,-114,64,112,-80,-106,76,100,-62,-144,78,100,-96,-100,88,90,-98,-78,94,76,-96,-92,98,58,-90,-54,96,42,-116,-24,120,26,-100,-30,112,42,-128,-22,110,20,-106,-10,106,6,-110,-12,116,-4,-106,-12,118,-6,-102,-20,96,4,-94,14,110,-28,-110,16,120,-40,-104,48,102,-42,-110,68,114,-82,-100,74,110,-72,-106,84,98,-96,-86,94,82,-90,-100,98,60,-98,-66,138,32,-96,-44,122,28,-110,-38,122,26,-106,-22,108,12,-116,-26,134,10,-122,0,104,10,-112,-4,106,-2,-112,8,116,-2,-100,-22,104,-16,-114,20,104,-28,-114,38,98,-32,-98,56,120,-88,-116,74,122,-90,-106,90,114,-92,-110,84,92,-100,-70,102,62,-104,-54,112,50,-116,-44,96,52,-120,-38,108,34,-112,-36,108,28,-112,-14,116,10,-110,-20,124,10,-106,-6,116,2,-108,-2,104,-4,-86,-8,148,10,-130,12,104,-18,-108,22,118,-30,-110,58,112,-68,-112,82,92,-72,-112,86,110,-100,-114,110,88,-106,-96,92,82,-100,-78,108,72,-120,-68,130,40,-120,-46,116,42,-120,-24,100,32,-118,-42,120,22,-104,-32,112,14,-118,-8,112,16,-120,-10,110,2,-110,6,96,0,-110,-4,120,0,-112,14,108,-18,-122,24,96,-54,-96,46,128,-78,-110,72,110,-64,-106,86,98,-86,-90,94,84,-86,-90,102,76,-96,-76,108,76,-124,-60,106,46,-112,-56,126,30,-108,-44,126,12,-114,-24,112,36,-136,-34,118,22,-112,-6,98,18,-106,-18,112,0,-106,0,106,-2,-114,0,116,0,-108,-2,114,-20,-86,18,124,-50,-108,56,122,-60,-108,86,102,-68,-102,90,98,-94,-102,88,98,-96,-108,100,78,-98,-70,90,66,-100,-90,122,56,-122,-46,116,46,-112,-46,112,28,-112,-30,116,10,-120,-20,132,10,-112,-12,112,6,-114,-10,106,12,-112,-10,120,8,-108,2,114,2,-116,-6,134,-8,-106,18,90,-6,-124,8,104,-32,-96,48,116,-70,-114,64,112,-74,-108,88,114,-92,-106,110,74,-96,-82,116,80,-114,-66,114,66,-108,-48,96,46,-110,-38,110,64,-138,-24,120,18,-102,-44,102,26,-118,-24,100,6,-116,-4,114,10,-110,0,114,0,-88,24,124,-8,-124,10,104,-16,-110,32,78,-16,-122,30,114,-48,-108,58,104,-48,-118,76,114,-76,-130,90,70,-84,-86,84,96,-106,-102,96,96,-108,-72,124,58,-114,-68,112,70,-130,-56,118,46,-112,-42,104,20,-112,-32,120,26,-108,-18,104,12,-114,-8,116,2,-124,-4,110,0,-102,-12,108,-2,-114,-8,124,-8,-106,6,110,-12,-114,20,110,-32,-118,28,120,-60,-104,48,110,-68,-110,78,102,-76,-114,72,100,-84,-92,84,118,-116,-84,106,76,-100,-80,106,50,-106,-54,108,62,-118,-24,130,14,-128,-42,120,22,-122,-18,104,28,-116,-22,116,-6,-116,-6,114,12,-124,0,120,4,-118,10,118,0,-96,2,102,-30,-108,24,102,-28,-108,56,124,-66,-108,68,106,-64,-106,90,100,-86,-102,102,100,-102,-100,106,88,-94,-74,88,92,-100,-74,98,64,-118,-64,112,72,-104,-44,116,32,-108,-36,104,46,-88,-8,116,8,-104,-18,110,8,-118,-12,108,32,-114,-12,122,-10,-102,-4,92,-8,-112,0,116,-32,-122,212,74,-94,-60,110,58,-112,-6,120,12,-100,6,92,-12,-102,0,102,2,-90,12,88,-16,-72,22,100,-12,-90,30,92,-24,-98,38,98,-40,-72,50,80,-44,-70,46,82,-46,-44,52,60,-50,-50,64,48,-66,-34,52,50,-64,-38,66,40,-68,-32,74,40,-74,-42,78,30,-78,-24,92,20,-90,-36,104,28,-84,-20,96,14,-88,0,106,0,-82,6,90,-18,-92,24,100,-18,-98,40,90,-34,-64,50,86,-44,-84,30,80,-40,-86,46,70,-42,-74,70,80,-62,-66,68,66,-56,-44,60,54,-54,-48,62,46,-54,-48,52,40,-52,-40,72,38,-62,-34,84,36,-88,-34,84,36,-88,-18,94,40,-82,-8,88,10,-90,-10,96,-6,-94,0,104,-4,-80,0,86,-8,-110,18,92,-16,-92,24,108,-34,-90,44,94,-34,-72,46,82,-40,-66,58,78,-44,-56,66,66,-50,-72,60,66,-52,-54,56,50,-48,-32,56,54,-56,-44,70,50,-60,-30,72,32,-72,-40,82,36,-78,-36,92,30,-98,-20,96,24,-86,-14,98,18,-92,-2,102,12,-96,2,90,0,-86,18,98,-10,-96,28,84,-26,-100,38,96,-30,-78,40,94,-38,-80,38,88,-50,-68,58,64,-58,-46,66,58,-56,-50,54,50,-64,-44,56,52,-54,-42,64,48,-60,-32,76,46,-78,-34,90,32,-72,-26,92,24,-90,-16,84,16,-84,-18,92,10,-92,-10,106,2,-86,12,92,0,-78,16,96,-16,-92,20,98,-28,-82,38,96,-56,-72,54,80,-40,-72,50,76,-48,-66,50,66,-48,-54,56,58,-50,-58,58,50,-56,-50,58,46,-58,-50,66,54,-72,-54,64,44,-76,-34,84,34,-88,-30,90,26,-86,-12,80,38,-76,-14,96,20,-84,-8,100,4,-88,4,92,4,-82,16,84,-16,-82,28,96,-34,-88,38,88,-36,-80,30,88,-42,-72,42,70,-44,-56,52,72,-50,-50,66,56,-50,-52,60,52,-44,-30,50,32,-66,-40,60,40,-62,-40,72,34,-72,-26,78,26,-80,-28,94,20,-86,-28,80,22,-82,-4,96,8,-90,-2,92,12,-84,14,88,-6,-102,30,90,-22,-94,38,94,-34,-86,42,84,-44,-68,46,78,-36,-76,50,74,-54,-58,60,68,-54,-54,62,54,-64,-50,66,40,-46,-40,66,44,-62,-38,72,34,-70,-30,74,26,-78,-30,98,34,-84,-30,102,26,-84,-20,98,22,-86,-8,92,0,-90,12,96,-20,-92,20,100,-30,-78,28,94,-26,-80,38,90,-30,-72,42,80,-44,-76,50,72,-44,-70,58,64,-50,-54,58,56,-56,-42,62,42,-50,-56,50,54,-60,-38,60,42,-64,-40,66,38,-78,-30,86,30,-98,-12,90,24,-92,-18,102,26,-98,-10,98,14,-90,0,96,-2,-94,8,104,-2,-100,26,106,-20,-88,34,100,-38,-78,44,90,-26,-76,40,76,-36,-66,52,78,-46,-66,50,68,-46,-58,56,56,-56,-38,66,52,-56,-42,62,46,-62,-42,62,44,-66,-32,86,30,-74,-42,90,32,-92,-28,80,18,-90,-14,88,6,-92,-8,94,0,-92,0,94,0,-98,2,100,-10,-94,22,102,-18,-94,34,94,-28,-94,52,94,-44,-78,36,98,-38,-76,40,78,-50,-62,54,66,-42,-62,58,58,-56,-44,64,54,-52,-48,64,48,-52,-44,66,30,-66,-42,80,38,-78,-38,84,32,-100,-20,86,24,-98,-12,98,20,-92,-4,98,20,-96,4,96,2,-82,10,96,8,-98,20,104,-16,-92,26,96,-22,-86,40,86,-36,-80,48,90,-40,-86,48,78,-46,-66,58,70,-46,-54,54,62,-46,-56,58,52,-60,-52,56,56,-46,-54,62,46,-68,-30,62,48,-54,-26,76,30,-72,-30,88,36,-82,-28,90,26,-94,-26,102,22,-102,-2,96,2,-106,4,106,-10,-96,12,106,-12,-82,26,92,-28,-90,26,106,-34,-86,40,86,-26,-70,46,90,-34,-62,52,74,-54,-70,54,66,-54,-60,62,46,-74,-56,58,64,-64,-36,76,42,-70,-24,70,38,-68,-38,76,32,-78,-24,78,28,-84,-28,92,42,-96,-2,96,10,-82,-2,98,12,-92,-8,96,-2,-108,14,104,-6,-92,10,114,-16,-90,26,98,-32,-84,44,90,-38,-82,44,78,-42,-66,50,76,-48,-70,52,78,-54,-60,62,58,-48,-50,62,52,-52,-52,60,50,-62,-40,66,44,-58,-40,82,42,-64,-32,84,34,-74,-28,92,30,-86,-20,88,24,-78,-10,90,10,-82,-22,100,8,-94,8,100,2,-92,18,96,-18,-90,18,96,-36,-102,42,104,-32,-86,46,90,-44,-74,44,80,-44,-70,62,72,-50,-62,54,68,-56,-62,56,58,-64,-54,60,40,-62,-40,78,40,-66,-28,74,36,-80,-42,90,34,-88,-30,84,24,-92,-18,96,20,-102,-14,94,18,-98,-4,94,0,-92,0,86,-2,-88,12,100,-6,-88,14,94,-22,-90,34,90,-28,-82,36,72,-54,-76,48,78,-44,-66,50,72,-52,-64,44,68,-44,-58,60,56,-54,-36,66,52,-58,-44,72,52,-68,-286,84,64,-108,-80,112,88,-110,-84,102,100,-96,-90,108,86,-122,-98,134,66,-118,-56,102,56,-124,-58,136,40,-134,-38,138,30,-134,-24,142,-2,-124,-6,130,4,-142,-10,124,-10,-116,6,116,-20,-114,34,92,-26,-110,30,122,-40,-104,42,110,-60,-108,48,118,-68,-110,64,104,-82,-98,90,92,-94,-122,104,104,-102,-92,110,80,-114,-86,114,74,-100,-72,128,56,-124,-52,126,50,-134,-28,124,28,-120,-12,128,36,-126,-16,144,0,-144,-14,128,-10,-138,18,118,-28,-124,10,116,-26,-108,12,120,-22,-116,20,120,-30,-112,24,110,-46,-118,48,104,-58,-108,74,104,-78,-108,88,106,-96,-120,84,106,-94,-90,96,104,-106,-100,112,72,-110,-86,110,78,-108,-78,112,72,-138,-58,136,44,-130,-56,150,18,-128,-20,128,14,-124,-18,140,0,-126,0,126,-8,-124,16,116,-8,-136,20,114,-18,-118,16,108,-18,-126,16,106,-32,-116,36,116,-46,-94,48,114,-64,-102,62,108,-80,-104,82,100,-102,-94,94,100,-92,-106,106,88,-108,-92,110,84,-114,-72,100,76,-124,-64,124,46,-124,-42,126,32,-140,-28,130,22,-136,-20,136,2,-136,-4,132,-10,-124,18,108,-24,-104,4,108,-24,-126,28,102,-30,-114,22,114,-36,-108,36,112,-52,-100,54,116,-74,-92,62,94,-68,-102,78,94,-90,-94,82,92,-90,-98,102,92,-114,-88,118,74,-106,-64,90,68,-122,-58,116,56,-134,-42,130,26,-128,-26,130,0,-114,-20,116,12,-136,-2,126,-2,-122,2,116,-16,-116,4,118,-26,-114,8,108,-26,-110,24,106,-30,-116,34,104,-42,-110,50,100,-62,-98,68,98,-72,-94,82,82,-84,-92,74,112,-94,-98,100,90,-104,-86,102,68,-108,-74,110,72,-116,-60,116,48,-122,-48,126,28,-136,-28,114,20,-128,-22,136,6,-120,-8,110,-8,-124,12,104,-16,-122,20,108,-16,-116,26,94,-16,-96,28,100,-32,-110,48,102,-40,-106,54,92,-68,-94,60,102,-84,-102,88,98,-84,-102,86,90,-102,-94,104,78,-110,-76,104,74,-114,-58,112,52,-138,-38,114,32,-132,-24,122,20,-132,-14,114,10,-124,-4,122,4,-132,4,122,-24,-116,6,112,-18,-108,18,110,-30,-110,22,104,-16,-104,36,106,-46,-96,44,106,-60,-96,56,90,-72,-110,84,100,-86,-106,82,88,-100,-96,96,88,-96,-84,106,62,-112,-64,112,56,-122,-44,122,34,-118,-46,128,20,-126,-28,122,14,-126,-14,126,-2,-126,4,120,-10,-130,6,106,-16,-118,16,104,-22,-110,28,88,-30,-124,26,114,-40,-104,44,100,-48,-106,52,94,-72,-98,82,96,-86,-92,80,96,-92,-100,94,100,-108,-90,110,88,-106,-78,108,72,-118,-74,122,58,-136,-48,120,32,-130,-32,130,8,-124,-28,130,20,-142,-10,124,4,-136,0,126,-14,-122,2,120,-18,-112,18,106,-38,-104,24,102,-28,-116,26,110,-38,-100,42,110,-46,-96,60,90,-62,-108,84,96,-78,-94,78,94,-88,-90,94,90,-104,-80,96,90,-108,-74,110,70,-114,-70,130,52,-120,-42,116,40,-136,-28,130,20,-142,-10,126,12,-132,-16,136,14,-132,-2,120,-14,-114,-2,114,-12,-116,18,104,-26,-112,22,112,-36,-116,26,106,-30,-110,42,90,-42,-116,58,98,-70,-108,76,92,-82,-96,80,88,-92,-94,96,84,-98,-94,104,86,-110,-84,108,66,-112,-72,112,64,-130,-58,130,38,-132,-40,128,26,-126,-22,128,14,-136,-8,130,4,-136,0,122,-10,-126,2,120,-14,-122,6,118,-22,-122,16,112,-24,-114,20,106,-30,-124,38,102,-44,-94,36,102,-50,-106,52,92,-68,-108,78,100,-80,-102,86,94,-100,-100,94,94,-110,-76,108,70,-116,-76,116,64,-128,-76,114,44,-118,-44,132,26,-132,-48,140,16,-140,-12,120,16,-132,-18,124,2,-124,8,128,-14,-122,6,116,-28,-120,22,102,-32,-124,30,108,-44,-106,38,108,-54,-86,44,112,-52,-104,64,96,-74,-94,64,106,-88,-108,88,104,-98,-76,84,76,-96,-92,112,90,-104,-86,120,64,-128,-60,116,56,-130,-56,128,42,-140,-34,132,28,-132,-16,130,12,-140,-16,128,0,-130,0,128,-8,-132,12,124,-18,-118,16,108,-22,-114,24,114,-26,-122,36,100,-38,-106,36,108,-62,-106,52,102,-56,-116,70,98,-74,-104,76,100,-86,-94,86,94,-92,-96,96,86,-102,-102,120,70,-120,-78,110,66,-120,-50,122,44,-124,-52,134,24,-144,-16,134,22,-134,-12,132,0,-124,-10,124,0,-126,10,122,-16,-120,12,120,-26,-118,20,116,-36,-114,28,104,-34,-100,44,100,-50,-106,44,104,-70,-110,76,96,-76,-92,78,92,-96,-94,94,90,-96,-94,106,88,-114,-86,110,68,-98,-86,120,64,-120,-62,126,40,-134,-56,126,32,-136,-28,134,12,-128,-20,116,2,-142,-2,122,0,-128,6,128,-14,-120,0,116,-22,-130,30,104,-28,-104,32,106,-32,-114,48,108,cylindrical
216,-216,-32,14,42,-78,-52,90,42,-98,-42,96,34,-136,-14,112,20,-80,-34,104,0,-120,0,110,22,-112,-8,94,12,-120,-4,98,-10,-110,24,104,-24,-114,32,100,-54,-94,28,126,-84,-102,66,112,-68,-96,70,94,-86,-92,102,100,-72,-90,96,80,-124,-74,102,76,-100,-56,110,44,-104,-44,112,30,-102,-48,130,30,-110,-30,110,0,-128,-4,102,26,-124,10,108,12,-100,0,108,-8,-96,-4,114,-12,-116,-4,138,-26,-112,2,106,-22,-108,30,102,-40,-110,56,90,-60,-96,68,106,-82,-104,86,100,-68,-96,78,96,-82,-102,94,74,-122,-66,90,80,-98,-72,114,62,-116,-44,120,40,-136,-50,128,40,-108,-24,96,30,-106,-28,146,-8,-120,-2,112,14,-108,-28,108,-2,-116,0,100,10,-102,0,110,-8,-106,6,100,-24,-102,28,112,-34,-106,38,130,-60,-110,66,114,-88,-132,68,108,-70,-110,98,96,-110,-92,106,64,-108,-72,110,58,-100,-66,118,52,-114,-66,110,64,-124,-40,122,50,-124,-30,114,32,-126,-6,138,12,-122,-28,114,14,-122,-24,114,4,-86,2,106,4,-114,-2,116,-8,-112,30,80,-18,-126,56,100,-36,-114,54,114,-66,-110,78,126,-92,-122,80,122,-80,-128,102,100,-100,-90,100,102,-108,-88,130,68,-112,-66,116,52,-102,-50,116,46,-126,-56,106,28,-112,-24,118,26,-134,-24,136,14,-114,-22,122,16,-102,-32,118,6,-122,-4,134,4,-116,0,116,0,-108,-8,124,-34,-112,42,168,24,-72,54,78,-82,-112,30,74,-92,-114,64,82,-100,-88,92,72,-94,-80,92,58,-102,-38,114,48,-116,-62,120,22,-104,-14,136,16,-124,-2,114,10,-82,-24,98,-2,-112,-48,110,12,-114,16,86,-14,-96,-8,104,-6,-98,-6,90,-2,-94,16,100,-22,-98,14,112,-34,-56,8,112,-42,-98,54,88,-58,-102,70,96,-60,-116,68,112,-88,-94,102,84,-94,-80,82,78,-88,-92,110,48,-124,-34,106,28,-90,-78,108,34,-128,-24,110,14,-98,-10,116,2,-134,10,120,18,-130,2,94,10,-92,10,106,6,-110,0,120,-8,-106,16,88,-8,-118,34,78,-20,-118,36,100,-40,-104,58,94,-66,-108,70,104,-80,-92,78,86,-94,-96,102,64,-106,-66,104,82,-100,-64,98,64,-116,-56,110,62,-138,-30,132,48,-102,-46,106,20,-120,-20,112,30,-130,-18,118,0,-138,12,116,6,-112,4,128,2,-100,0,116,-18,-120,28,104,-36,-98,24,96,-30,-120,48,96,-60,-116,70,108,-94,-86,80,122,-96,-106,86,88,-90,-92,94,82,-92,-74,112,74,-106,-64,106,54,-104,-58,104,44,-116,-38,114,34,-130,-28,114,20,-94,-6,100,2,-118,-6,112,2,-100,-24,106,-8,-110,10,102,-4,-116,6,108,0,-128,12,110,-20,-114,16,106,-10,-110,38,104,-42,-102,70,108,-68,-130,74,122,-80,-100,82,102,-98,-102,102,88,-106,-88,88,76,-116,-88,110,58,-128,-60,120,34,-110,-60,110,28,-120,-34,130,18,-114,-28,132,20,-130,-20,120,14,-122,6,106,24,-116,8,116,-10,-114,22,116,-24,-110,32,118,-30,-110,56,116,-40,-114,44,112,-46,-130,72,110,-84,-108,76,90,-84,-92,68,90,-90,-106,102,76,-114,-76,120,74,-118,-68,126,36,-126,-32,110,34,-120,-30,118,6,-102,-42,118,14,-136,-4,124,10,-130,-4,110,18,-108,-12,124,-22,-80,42,134,8,-132,-8,94,-12,-132,-2,124,-14,-126,4,132,-40,-136,26,142,-24,-152,56,106,-54,-152,74,118,-90,-106,98,120,-124,-116,108,110,-116,-112,112,94,-112,-88,112,90,-112,-74,142,48,-114,-66,128,48,-128,-28,110,42,-128,-28,126,48,-164,-20,124,8,-108,-28,120,4,-142,-8,106,-6,-122,-10,126,-18,-102,12,114,-30,-118,14,114,-28,-114,48,124,-58,-112,58,124,-70,-118,82,142,-124,-104,102,114,-102,-112,124,92,-122,-94,110,100,-136,-84,122,64,-128,-66,138,58,-128,-58,148,34,-112,-32,116,30,-126,-26,122,8,-128,-18,140,6,-134,-12,128,16,-134,-8,134,14,-124,8,118,-10,-122,-4,118,-4,-136,24,120,-8,-124,26,110,-36,-108,50,96,-40,-110,36,114,-80,-106,70,128,-96,-110,102,96,-86,-114,100,90,-108,-102,106,96,-128,-88,106,70,-120,-52,112,48,-120,-46,128,36,-132,-36,134,34,-132,-18,112,12,-120,-6,122,26,-144,-16,134,0,-122,-2,124,4,-124,8,140,-38,-116,18,120,-28,-120,30,132,-26,-100,32,118,-54,-110,68,108,-78,-128,90,114,-80,-104,94,90,-92,-108,104,82,-106,-88,130,96,-120,-84,110,68,-114,-72,122,44,-124,-32,124,30,-128,-54,132,20,-124,-24,128,18,-118,-2,96,12,-124,-6,150,-18,-126,-2,128,-26,-114,12,98,8,-118,-6,110,-6,-106,18,82,-22,-78,30,90,-44,-82,40,68,-60,-78,68,70,-76,-90,74,88,-82,-88,96,72,-86,-72,210,2,-80,-8,108,-8,-96,38,98,-44,-76,54,92,-48,-70,50,56,-36,-54,56,66,-46,-56,46,58,-50,-38,58,60,-54,-36,66,54,-74,-30,64,44,-68,-26,88,26,-64,-32,92,30,-76,-20,86,20,-80,-10,96,10,-94,-16,82,4,-88,0,106,0,-92,4,94,-10,-90,28,88,-26,-90,40,84,-22,-96,48,84,-34,-72,54,84,-54,-64,48,84,-66,-60,52,56,-58,-50,66,46,-54,-44,70,50,-48,-54,72,44,-58,-48,64,34,-76,-28,70,30,-76,-16,90,24,-82,-20,90,20,-84,-18,78,8,-78,-4,90,16,-86,4,110,-2,-84,2,92,-8,-92,18,98,-20,-92,34,110,-20,-98,30,80,-38,-76,44,72,-36,-86,58,72,-52,-68,56,54,-38,-52,64,64,-52,-38,60,42,-58,-40,56,42,-60,-32,70,34,-66,-22,72,30,-68,-38,80,24,-80,-32,92,38,-76,-24,84,18,-88,-12,98,8,-104,14,94,0,-96,14,94,-14,-94,26,92,-12,-90,14,94,-28,-90,24,90,-32,-82,38,82,-48,-84,50,78,-42,-66,48,64,-46,-52,56,44,-52,-44,62,52,-54,-40,60,48,-66,-26,70,46,-76,-26,88,28,-74,-30,80,24,-88,-34,92,24,-88,-26,94,30,-94,-10,100,14,-90,-12,98,4,-104,12,104,-10,-94,24,92,-28,-82,32,100,-18,-84,38,86,-42,-76,40,92,-40,-84,44,70,-40,-66,50,66,-38,-50,56,64,-46,-60,58,50,-56,-44,64,48,-46,-48,78,44,-72,-36,66,70,-46,-2,86,8,-90,-24,66,4,-94,-24,78,8,-92,2,92,8,-90,12,90,-20,-102,14,94,-16,-98,36,100,-36,-94,44,104,-46,-86,54,72,-44,-72,56,76,-22,-70,42,80,-58,-56,64,68,-42,-52,60,56,-50,-36,60,44,-60,-36,62,38,-56,-42,74,8,-52,-34,76,26,-78,-20,82,24,-78,-16,80,38,-76,-22,86,14,-94,-8,96,12,-82,2,86,2,-94,16,108,-20,-90,34,84,-4,-82,28,96,-36,-80,42,80,-44,-82,54,94,-58,-84,50,86,-56,-58,46,58,-64,-52,52,52,-52,-56,60,50,-62,-34,62,50,-74,-24,72,46,-72,-30,72,24,-76,-22,82,32,-84,-18,92,18,-84,-10,98,18,-88,4,106,0,-92,2,92,-4,-92,4,96,-8,-94,14,114,-20,-100,20,88,-24,-80,48,94,-34,-82,42,90,-38,-76,54,92,-62,-72,54,70,-54,-68,62,52,-50,-52,70,62,-70,-42,74,46,-66,-26,70,44,-74,-26,92,38,-80,-28,106,16,-90,-30,98,22,-90,-8,88,16,-96,0,94,0,-98,-2,92,-4,-88,18,96,-10,-84,28,100,-26,-90,26,98,-40,-88,38,70,-54,-80,50,80,-48,-70,52,64,-42,-58,62,70,-52,-58,62,58,-52,-48,64,66,-54,-46,66,46,-62,-40,62,38,-68,-30,72,30,-86,-24,86,46,-88,-38,90,24,-86,-16,98,14,-98,-6,98,8,-88,6,102,12,-90,14,110,-8,-98,28,100,-16,-86,36,94,-32,-100,40,84,-36,-90,48,90,-38,-80,46,86,-60,-66,46,68,-56,-58,62,58,-72,-48,70,54,-76,-48,74,48,-82,-42,80,36,-70,-28,76,38,-82,-30,90,30,-84,-12,94,6,-86,-10,88,16,-92,-2,96,0,-104,2,104,-6,-102,22,112,-26,-94,38,94,-36,-92,48,80,-36,-74,46,96,-50,-80,46,90,-46,-76,46,74,-50,-72,64,-46,-194,-138,64,110,-20,-24,106,94,-36,-46,78,78,-50,-56,84,70,-72,-66,74,64,-84,-40,92,64,-94,-38,102,34,-110,-34,118,34,-108,-14,116,24,-112,-10,106,8,-102,-6,106,0,-112,18,108,-8,-110,22,108,-30,-94,34,102,-34,-100,30,112,-26,-92,54,82,-42,-80,52,96,-54,-60,66,78,-50,-62,72,54,-68,-56,82,58,-70,-48,72,48,-80,-46,94,44,-82,-42,94,40,-98,-46,122,30,-106,-30,108,30,-116,-8,120,16,-104,-16,120,4,-106,10,114,-8,-114,16,110,-16,-118,32,104,-36,-100,44,104,-36,-96,52,102,-44,-100,52,98,-46,-92,46,90,-50,-94,52,82,-66,-80,68,78,-58,-54,60,70,-66,-60,64,58,-76,-48,80,42,-84,-28,80,34,-76,-30,92,32,-90,-34,104,32,-108,-14,100,32,-102,-4,106,18,-106,-10,112,14,-94,8,114,-18,-102,20,104,-26,-104,36,108,-32,-102,38,102,-32,-86,52,92,-54,-86,48,96,-44,-84,62,86,-60,-76,60,72,-56,-74,86,58,-72,-58,84,62,-70,-50,76,42,-76,-34,86,34,-86,-30,100,44,-98,-34,98,24,-102,-12,102,20,-108,-4,102,4,-114,-8,110,10,-102,8,102,-4,-106,30,112,-32,-102,34,106,-24,-102,42,96,-44,-94,44,98,-54,-72,52,92,-56,-98,62,84,-50,-80,74,72,-64,-56,56,60,-44,-42,60,54,-64,-34,66,30,-68,-32,76,24,-70,-12,82,24,-80,-10,86,20,-78,-18,84,12,-94,-4,90,8,-92,-198,108,-18,-138,-12,136,18,-116,-14,110,12,-112,-24,132,4,-124,-14,104,8,-118,4,122,-26,-116,12,112,-26,-112,16,110,-26,-112,38,100,-38,-108,44,104,-60,-98,62,86,-56,-112,82,88,-86,-110,82,92,-90,-96,90,96,-106,-96,92,88,-112,-84,126,70,-118,-74,116,48,-120,-52,120,40,-130,-38,126,22,-138,-28,126,16,-130,0,138,-4,-134,-6,126,-12,-118,0,110,-16,-118,18,104,-20,-116,22,112,-30,-124,42,114,-28,-98,50,106,-42,-102,52,104,-74,-104,68,98,-74,-104,78,102,-90,-94,82,92,-100,-100,96,92,-114,-84,124,68,-112,-74,118,64,-132,-64,130,40,-136,-44,136,36,-130,-28,132,10,-120,-20,124,10,-140,10,128,-14,-116,0,122,-10,-124,16,114,-32,-112,16,112,-20,-118,30,110,-34,-108,42,92,-52,-114,54,106,-62,-118,78,112,-80,-110,88,116,-88,-100,90,106,-114,-98,126,84,-112,-84,122,72,-126,-60,120,56,-136,-56,140,54,-136,-50,144,30,-144,-32,148,10,-134,-12,142,-8,-148,0,136,2,-128,10,130,-6,-132,12,108,-28,-120,16,114,-20,-126,28,116,-50,-100,40,116,-82,-100,46,114,-62,-110,78,110,-88,-112,102,112,-104,-116,100,114,-116,-108,108,86,-120,-94,122,78,-140,-72,124,58,-132,-56,120,46,-142,-50,144,42,-130,-20,130,12,-142,-18,142,10,-142,0,130,-4,-142,0,112,0,-134,8,124,-26,-130,20,114,-34,-124,26,116,-36,-126,46,106,-60,-200,-38,38,-64,-50,114,110,-32,-56,110,106,-60,-60,108,66,-104,-72,106,66,-100,-58,112,36,-112,-36,126,46,-130,-28,104,6,-138,-14,124,-6,-124,-2,106,6,-114,2,122,14,-124,8,116,-30,-110,22,98,-28,-108,30,94,-34,-94,30,84,-46,-92,52,88,-54,-94,56,66,-48,-94,62,82,-76,-78,76,84,-88,-96,78,84,-86,-88,102,76,-112,-78,102,58,-102,-60,110,66,-124,-44,128,20,-124,-26,114,38,-126,-12,134,4,-130,0,122,-10,-132,12,142,-26,-130,4,130,-20,-112,22,104,-32,-108,22,112,-34,-116,36,106,-50,-98,44,104,-60,-88,46,102,-58,-88,62,96,-78,-94,82,88,-90,-94,90,84,-98,-88,98,80,-118,-68,110,58,-110,-80,116,66,-110,-66,128,46,-128,-56,136,20,-140,-30,126,18,-132,-16,134,0,-130,-8,136,-12,-134,20,138,-34,-124,22,116,-40,-124,22,104,-34,-120,42,108,-50,-106,54,88,-52,-98,54,104,-74,-96,70,94,-92,-94,102,76,-98,-96,104,86,-100,-84,112,72,-110,-72,108,66,-120,-62,118,50,-130,-52,120,38,-130,-38,132,30,-130,-12,144,8,-128,0,130,-2,-120,8,128,-14,-124,18,116,-14,-128,26,118,-40,-110,28,112,-44,-116,28,116,-48,-104,50,106,-54,-98,48,96,-68,-98,72,90,-86,-104,86,104,-92,-98,98,84,-104,-88,108,82,-110,-78,122,68,-112,-76,124,66,-132,-54,138,42,-140,-30,130,34,-136,-20,146,12,-144,0,136,-4,-144,0,146,-10,-142,14,132,-32,-122,10,118,-36,-120,40,114,-44,-124,48,108,-54,-116,52,100,-74,-102,64,94,-76,-98,74,108,-88,-100,100,88,-100,-84,108,86,-94,-86,110,92,-114,-76,128,68,-130,-64,130,56,-144,-36,136,20,-130,-24,140,14,-136,0,126,14,-144,2,146,-10,-148,4,144,-16,-134,6,128,-10,-72,118,184,-24,-142,4,106,-64,-138,8,108,-48,-140,36,116,-52,-134,66,128,-68,-126,62,134,-90,-110,82,122,-98,-112,108,100,-112,-106,124,86,-122,-96,130,88,-124,-82,132,74,-134,-76,130,58,-154,-48,142,46,-146,-38,146,12,-138,-28,150,8,-142,-30,166,-12,-144,14,136,-6,-142,24,138,-32,-128,34,124,-32,-132,46,114,-50,-118,54,114,-48,-114,60,110,-76,-120,74,102,-86,-112,94,102,-102,-114,122,92,-116,-98,118,86,-134,-90,130,88,-132,-88,142,70,-140,-62,140,56,-146,-50,144,36,-158,-24,140,16,-144,-22,150,2,-148,0,152,-2,-156,6,150,-10,-138,10,148,-20,-140,18,140,-36,-130,36,116,-30,-124,34,130,-54,-116,50,118,-62,-108,62,104,-72,-98,70,100,-70,-110,98,96,-94,-114,114,92,-116,-96,106,90,-116,-88,124,86,-120,-86,132,68,-138,-60,138,50,-134,-38,140,28,-148,-22,146,10,-150,-20,152,-8,-144,6,144,-14,-140,0,150,-22,-148,30,130,-32,-124,24,122,-50,-130,60,114,-54,-118,50,100,-64,-116,62,88,-70,-102,80,98,-98,-106,96,106,-106,-96,102,86,-112,-82,118,90,-116,-82,122,80,-134,-86,130,66,-128,-60,136,46,-146,-36,140,20,-144,-16,146,18,-148,0,146,2,-154,0,138,-16,-132,10,138,-12,-146,28,132,-32,-128,42,108,-36,-98,20,102,-36,-112,42,98,-48,-88,48,82,-58,-82,64,76,-66,-82,72,76,-80,-74,80,82,-86,-76,96,76,-102,-68,100,62,cylindrical
254,8,-22,-156,0,146,-22,-124,26,116,-16,-110,16,108,-24,-102,-10,104,-40,-110,60,92,-40,-120,50,106,-64,-100,94,90,-84,-116,88,92,-84,-102,112,100,-96,-88,106,92,-104,-96,94,94,-126,-74,110,74,-124,-54,130,50,-120,-40,126,22,-130,-16,128,16,-140,-2,106,0,-122,-12,124,-12,-118,10,144,-10,-126,10,116,-14,-120,12,120,-36,-86,20,134,-38,-112,36,102,-38,-112,42,120,-40,-104,58,114,-74,-124,86,110,-102,-104,126,82,-98,-108,104,106,-118,-96,120,82,-118,-100,114,64,-114,-48,122,42,-142,-48,136,34,-136,-18,140,24,-138,-10,120,6,-134,-14,124,2,-124,12,106,26,-128,10,128,-10,-110,8,124,-26,-122,8,150,-26,-112,18,118,-18,-124,32,120,-50,-126,54,138,-80,-112,78,118,-80,-102,84,128,-110,-116,102,102,-102,-102,114,98,-102,-86,116,76,-114,-74,134,56,-116,-36,114,26,-130,-30,142,18,-156,-10,128,28,-128,-12,120,-8,-124,-14,148,-18,-126,8,128,-18,-118,14,124,-8,-110,18,110,-26,-110,14,130,-42,-108,38,94,-54,-116,56,112,-74,-118,78,110,-98,-106,88,104,-114,-94,116,104,-104,-98,112,82,-116,-84,110,78,-122,-58,122,54,-120,-64,124,40,-132,-32,120,48,-138,-30,114,10,-128,-6,132,4,-126,-6,128,16,-148,6,96,26,-108,4,114,-24,-122,22,110,-24,-116,30,120,-14,-98,24,100,-38,-116,52,112,-62,-120,70,110,-90,-104,92,112,-130,-82,94,100,-92,-100,114,82,-116,-86,106,86,-128,-76,136,78,-128,-52,120,54,-126,-40,138,28,-136,-32,124,32,-138,-20,118,-8,-128,0,126,2,-122,2,110,-18,-124,0,128,-18,-94,10,126,-18,-116,30,118,-30,-118,52,110,-52,-120,42,124,-62,-106,74,110,-84,-104,68,110,-100,-112,112,106,-112,-94,128,78,-104,-96,110,82,-130,-74,120,64,-120,-50,134,30,-128,-2,108,18,-126,-12,118,16,-134,-12,124,2,-132,-14,132,-4,-136,0,126,-14,-124,24,118,-12,-126,24,120,-28,-112,14,110,-18,-98,4,120,-42,-104,50,104,-30,-102,76,96,-74,-110,78,98,-96,-126,100,98,-114,-102,120,88,-100,-102,108,100,-114,-90,120,66,-132,-56,154,46,-126,-44,124,32,-128,-32,132,30,-126,-4,122,4,-128,-4,126,6,-126,0,130,-6,-126,10,114,4,-112,6,120,-14,-136,20,128,-24,-118,24,110,-20,-128,24,106,-26,-118,58,102,-64,-94,66,100,-82,-116,100,86,-84,-88,94,92,-104,-86,112,84,-120,-82,114,90,-102,-90,126,70,-120,-66,122,46,-132,-34,122,32,-120,-10,122,0,-122,-12,136,8,-110,0,132,-4,-138,-2,124,8,-120,4,134,-34,-126,18,148,-32,-124,18,114,-30,-104,10,106,-32,-120,46,104,-46,-114,56,124,-54,-120,86,94,-90,-108,104,116,-120,-114,112,94,-118,-100,120,88,-116,-90,138,86,-116,-62,122,54,-136,-42,138,26,-138,-28,148,14,-130,-4,128,14,-140,-6,148,-2,-122,0,130,-8,-128,16,132,-16,-136,12,116,-6,-98,0,110,-2,-130,12,116,-34,-114,28,108,-44,-98,50,106,-62,-108,68,116,-94,-100,82,140,-100,-108,106,90,-110,-102,112,90,-108,-96,118,92,-142,-80,140,64,-102,-54,134,26,-124,-36,130,16,-132,-16,126,10,-136,-34,136,34,-132,2,122,-8,-132,6,130,-14,-126,10,132,-20,-94,18,120,-16,-124,16,116,-28,-112,20,104,-40,-114,52,122,-54,-100,54,124,-74,-136,76,100,-90,-78,112,94,-118,-102,114,98,-114,-100,112,90,-116,-98,116,96,-140,-64,130,34,-124,-34,134,32,-132,-28,136,8,-134,-12,130,6,-142,-2,130,-8,-128,-4,144,6,-128,10,114,-12,-128,12,120,-24,-128,24,116,-24,-114,60,126,-48,-94,44,84,-60,-106,74,110,-80,-114,86,108,-98,-112,116,102,-102,-102,110,98,-110,-98,114,84,-116,-70,122,68,-130,-58,128,42,-126,-36,120,26,-128,-16,150,16,-142,-8,122,2,-130,0,130,6,-144,6,124,-10,-122,16,138,-14,-122,16,120,-18,-130,18,106,-34,-108,12,106,-32,-114,38,96,-56,-120,76,122,-60,-110,74,112,-78,-106,90,104,-96,-118,126,74,-112,-90,116,90,-114,-70,100,70,-120,-66,108,58,-124,-32,120,22,-118,-26,136,0,-136,-20,120,0,-128,-6,136,4,-150,8,130,-2,-126,6,106,-6,-122,12,142,-14,-124,10,112,-12,-134,16,124,-22,-124,56,120,-50,-108,34,102,-60,-114,76,112,-88,-98,84,116,-96,-100,96,112,-122,-100,108,78,-100,-76,92,68,-98,-68,120,40,-126,-48,124,30,-128,-34,122,24,-132,-16,100,20,-128,-2,138,0,-138,0,122,-10,-118,20,102,10,-124,26,114,-24,-122,28,108,-26,-116,28,98,-46,-122,32,102,-58,-112,74,106,-80,-108,82,110,-94,-108,136,94,-92,-106,108,86,-120,-90,112,78,-116,-68,114,68,160,102,66,-84,-70,84,70,-60,-56,64,50,-56,-52,76,54,-50,-46,82,46,-90,-36,86,44,-82,-30,94,24,-104,-18,100,28,-92,-14,96,18,-112,-10,100,10,-104,-2,100,12,-92,-2,110,0,-92,2,110,-16,-104,20,102,-32,-100,44,106,-40,-98,56,106,-50,-82,60,88,-46,-86,68,86,-58,-92,72,82,-60,-64,68,74,-60,-56,82,50,-74,-58,74,46,-78,-38,76,40,-78,-38,76,34,-84,-34,90,36,-96,-28,104,26,-116,-6,108,20,-98,-14,112,10,-106,-2,116,14,-96,8,102,-18,-102,22,120,-22,-106,40,108,-38,-102,42,106,-46,-84,56,92,-42,-86,60,84,-64,-74,42,78,-58,-78,64,68,-60,-58,80,70,-62,-70,72,52,-66,-50,76,48,-72,-46,88,44,-84,-56,98,32,-92,-32,102,26,-94,-28,114,26,-100,-18,104,20,-100,-6,96,2,-104,2,104,-2,-110,14,104,-32,-98,34,102,-34,-108,44,114,-44,-90,48,94,-44,-82,58,84,-46,-84,74,80,-60,-68,70,64,-64,-56,68,56,-70,-40,72,46,-64,-50,80,42,-74,-28,82,40,-78,-32,94,32,-92,-26,100,26,-90,-16,114,14,-112,-8,102,18,-102,-2,102,6,-98,2,102,-10,-102,16,106,-10,-100,24,104,-28,-96,30,104,-26,-90,52,96,-50,-90,54,88,-50,-84,46,98,-58,-62,44,70,-54,-56,72,66,-64,-54,76,50,-66,-46,72,40,-68,-32,78,38,-68,-34,82,40,-88,-26,94,22,-94,-26,118,12,-100,-10,102,12,-102,-4,112,4,-92,-4,110,0,-110,0,114,-10,-102,16,106,-22,-104,40,108,-38,-94,42,106,-32,-80,60,96,-52,-88,58,86,-58,-72,68,76,-50,-72,72,56,-64,-60,62,56,-70,-54,76,52,-80,-38,92,46,-78,-38,92,30,-92,-32,102,26,-90,-26,100,22,-102,-20,110,14,-110,-4,104,8,-98,-2,114,0,-102,10,98,-20,-110,30,108,-42,-86,48,102,-48,-90,54,96,-42,-88,50,94,-38,-90,58,96,-52,-86,64,88,-64,-70,66,72,-68,-60,76,60,-66,-44,68,42,-54,-44,80,36,-76,-34,76,28,-88,-30,96,28,-94,-20,100,38,-94,-12,116,18,-112,-6,96,18,-102,-8,102,10,-106,6,112,-10,-118,22,104,-20,-104,40,106,-34,-100,36,96,-42,-86,58,96,-52,-90,50,92,-50,-86,62,86,-58,-70,56,66,-52,-66,68,76,-64,-64,70,60,-68,-42,74,56,-70,-36,68,38,-82,-36,88,26,-82,-20,94,32,-102,-18,94,10,-96,-10,102,10,-98,0,106,10,-96,-10,100,8,-102,4,102,-4,-98,20,108,-26,-94,34,100,-42,-86,60,98,-46,-90,52,80,-54,-88,60,96,-50,-80,50,78,-54,-82,74,76,-70,-76,78,74,-62,-46,84,46,-62,-38,78,42,-76,-38,78,36,-82,-42,82,34,-98,-24,98,28,-102,-22,112,26,-108,-10,112,14,-108,-2,104,6,-112,-2,104,-10,-100,16,112,-20,-110,40,112,-28,-106,48,98,-46,-94,50,96,-46,-100,58,86,-54,-90,64,88,-60,-80,66,80,-60,-64,60,58,-56,-44,56,58,-60,-56,74,52,-70,-44,78,34,-78,-32,92,34,-86,-36,104,28,-94,-42,102,24,-104,-8,104,22,-106,-8,102,8,-100,-2,116,8,-112,12,96,-14,-108,36,104,-28,-98,42,104,-44,-94,50,104,-30,-94,32,96,-52,-88,58,94,-60,-80,68,84,-60,-78,70,54,-76,-60,66,56,-66,-50,70,52,-64,-40,84,42,-80,-42,92,32,-78,-42,92,50,-88,-24,102,6,-110,-12,112,16,-108,-6,104,10,-106,-10,100,14,-100,-8,108,0,-102,30,116,-26,-106,38,108,-30,-102,48,106,-42,-88,56,104,-48,-92,52,96,-50,-86,52,84,-60,-64,68,74,-62,-64,74,66,-72,-52,72,48,-88,-50,82,34,-78,-14,94,30,-92,-32,98,30,-92,-28,98,28,-108,-18,106,22,-104,-8,102,12,-104,0,104,-4,-106,2,108,-12,-104,28,104,-26,-92,42,100,-40,-102,48,110,-38,-90,58,96,-50,-88,56,100,-62,-80,60,82,-64,-80,68,74,-66,-64,68,66,-66,-46,84,52,-60,-44,78,48,-70,-34,86,42,-86,-38,86,36,-90,-30,90,26,-100,-20,100,28,-112,-2,108,12,-110,-4,104,-4,-92,6,104,-10,-90,16,106,-24,-94,38,98,-36,-98,58,104,-40,-88,56,98,-48,-94,56,104,-58,-88,64,92,-52,-64,66,80,-64,-78,62,72,-56,-56,64,68,-64,-58,64,56,-86,-54,90,48,-72,-30,92,34,-88,-30,102,24,-90,-26,104,22,-98,-20,110,22,-104,-8,98,-2,-90,6,98,-4,-96,22,102,-18,-100,30,104,-24,-98,38,102,-34,-74,48,96,-44,-96,54,96,-56,-82,58,76,-64,-64,56,72,-68,-62,72,64,-70,-46,70,52,-70,-34,84,46,-66,-28,90,36,-88,-32,94,30,-92,-28,98,26,-118,-14,100,18,-102,-4,118,14,-100,0,102,-6,-100,8,100,-244,-188,-14,128,-8,-144,24,142,-40,-136,38,134,-60,-130,58,112,-50,-112,74,116,-86,-100,72,108,-88,-102,92,98,-108,-88,100,100,-112,-92,112,94,-126,-98,122,82,-126,-92,128,82,-128,-86,144,70,-144,-64,142,44,-152,-36,152,24,-156,-20,158,-2,-160,-10,162,-10,-146,2,154,-8,-158,22,148,-38,-160,28,142,-38,-142,38,130,-50,-138,60,100,-48,-126,66,110,-68,-108,74,110,-78,-118,78,102,-88,-108,102,110,-110,-102,122,92,-140,-88,120,96,-130,-100,138,92,-146,-88,132,82,-140,-64,142,48,-154,-40,156,28,-158,-24,158,4,-166,-6,156,-12,-150,6,158,-18,-154,18,154,-26,-140,8,150,-40,-148,40,124,-48,-142,48,128,-50,-144,60,118,-66,-122,58,128,-78,-118,82,126,-84,-120,96,104,-106,-112,108,90,-116,-110,122,104,-128,-96,126,86,-138,-90,136,82,-144,-74,144,64,-156,-46,146,34,-148,-20,162,12,-168,-4,170,-16,-164,-6,158,-6,-154,22,148,-24,-166,34,136,-40,-138,44,126,-48,-140,48,114,-52,-126,60,118,-60,-128,76,112,-74,-106,84,112,-94,-110,102,112,-104,-108,116,98,-122,-100,132,88,-130,-110,122,92,-130,-84,138,74,-138,-74,148,52,-148,-48,144,48,-150,-34,158,16,-150,-32,162,-2,-152,4,158,-10,-162,10,154,-18,-154,14,154,-34,-132,16,124,-40,-136,46,134,-58,-122,54,116,-72,-124,56,108,-66,-108,64,114,-88,-110,96,106,-98,-104,112,98,-120,-102,140,84,-126,-100,116,96,-136,-86,128,88,-134,-86,146,70,-158,-70,152,46,-148,-48,152,22,-164,-16,160,12,-158,-22,154,-4,-156,16,154,-24,-152,18,146,-28,-140,30,144,-34,-142,44,114,-42,-134,52,124,-64,-124,66,114,-88,-112,82,108,-84,-114,92,104,-106,-110,108,104,-96,-102,116,98,-136,-98,130,90,-146,-80,132,86,-140,-82,144,70,-144,-60,154,42,-158,-30,152,2,-154,-14,158,0,-156,-10,168,0,-160,2,162,-12,-162,16,160,-22,-154,20,142,-40,-138,36,132,-50,-136,54,122,-52,-126,54,108,-60,-124,72,114,-86,-104,68,106,-102,-96,102,104,-102,-100,112,98,-130,-94,128,92,-130,-92,128,88,-130,-94,140,76,-146,-64,150,46,-164,-40,154,18,-152,-20,150,16,-156,-16,152,-14,-158,8,158,-12,-158,10,150,-28,-150,28,142,-36,-134,20,132,-42,-134,42,134,-56,-132,60,116,-68,-120,64,120,-66,-110,70,118,-92,-104,92,88,-100,-98,106,108,-120,-86,112,90,-120,-92,122,74,-132,-86,136,78,-142,-80,132,72,-150,-62,148,46,-156,-34,158,18,-156,-20,146,-6,-158,4,148,-10,-162,12,148,-20,-160,18,152,-24,-148,20,148,-38,-150,56,136,-48,-156,52,118,-62,-124,60,110,-62,-116,68,126,-82,-110,84,116,-92,-118,96,118,-108,-102,114,98,-124,-108,136,100,-134,-92,140,88,-144,-86,144,80,-160,-74,148,52,-156,-48,164,24,-164,-22,158,4,-168,-2,160,-12,-156,0,166,-18,-170,18,158,-28,-156,26,146,-42,-146,38,146,-44,-136,44,110,-42,-124,48,134,-60,-122,72,116,-72,-110,80,102,-92,-110,88,106,-98,-116,114,98,-112,-116,124,96,-128,-94,134,88,-132,-82,132,80,-146,-86,158,60,-164,-56,144,40,-160,-26,150,14,-162,-4,164,0,-162,-2,162,0,-168,0,166,-22,-158,26,148,-32,-154,30,144,-40,-144,52,118,-48,-126,52,130,-54,-130,66,122,-74,-114,74,118,-92,-122,82,108,-94,-118,106,116,-114,-100,124,84,-132,-96,136,90,-130,-94,138,94,-132,-86,142,78,-140,-84,158,46,-164,-38,152,20,-164,-26,160,8,-168,-2,158,-8,-166,2,166,-10,-162,24,144,-26,-160,26,146,-44,-142,42,138,-52,-132,58,132,-60,-124,60,118,-86,-124,80,96,-84,-102,84,108,-98,-108,102,108,-108,-106,122,102,-132,-100,124,86,-130,-90,138,82,-140,-80,146,70,-148,-60,158,40,-154,-36,152,12,-156,-14,154,0,-172,-8,162,-14,-156,10,154,-24,-156,20,156,-30,-148,36,142,-46,-148,40,134,-48,-130,52,126,-64,-120,60,118,-62,-118,62,116,-78,-102,82,108,-100,-114,90,100,-100,-102,114,98,-118,-98,124,104,-140,-84,136,78,-132,-84,136,66,-134,-68,146,58,-148,-56,148,24,-152,-16,150,4,-166,0,160,0,-158,8,154,-14,-160,12,166,-32,-158,18,142,-36,-136,32,134,-36,-148,42,130,-48,-128,50,130,-54,-122,62,118,-84,-118,74,100,-80,-98,86,102,-104,-104,106,90,-108,-108,114,90,-116,-102,136,90,-132,-72,130,74,-128,-74,126,58,-142,-42,150,36,-154,-30,158,14,-152,-14,152,-6,-148,-2,156,-20,-160,24,158,-24,-140,34,138,-50,-128,24,134,-56,-128,54,124,-60,-116,58,112,-68,-104,74,110,-80,-104,86,106,-102,-100,104,100,-110,-100,116,96,-140,-90,116,90,-136,-90,134,78,-136,-74,144,64,-144,-66,cylindrical
170,-122,-126,-22,96,-4,-106,46,110,-50,-106,76,108,-102,-102,98,86,-102,-92,100,98,-108,-88,106,72,-114,-96,132,72,-90,-76,112,44,-114,-70,112,32,-124,-30,140,-6,-120,-10,130,14,-120,-4,118,6,-116,-2,120,-6,-118,4,114,-8,-112,34,118,0,-126,18,118,-6,-122,16,112,-22,-110,34,104,-46,-104,36,104,-50,-112,60,108,-82,-102,78,98,-76,-104,108,88,-92,-128,110,94,-112,-86,120,72,-120,-82,116,44,-120,-46,112,18,-122,-18,132,14,-124,-16,138,-4,-108,-10,126,8,-134,-10,126,6,-116,-36,120,-14,-124,0,116,0,-122,0,110,-14,-112,14,104,-6,-108,20,122,-64,-110,22,102,-56,-124,40,128,-64,-110,74,108,-74,-110,88,124,-108,-112,102,90,-118,-96,104,68,-110,-82,144,70,-124,-62,118,42,-124,-36,120,38,-122,-26,120,6,-130,-10,132,4,-148,30,118,-4,-124,0,110,-10,-118,6,106,-24,-120,24,108,-24,-112,18,108,-16,-124,20,104,-34,-110,36,108,-58,-102,66,86,-74,-110,94,108,-86,-106,92,98,-96,-94,108,90,-114,-92,96,76,-120,-74,114,62,-120,-50,118,30,-122,-30,134,28,-126,-24,134,0,-112,-4,124,6,-124,-6,130,10,-122,-2,118,2,-114,-2,106,-10,-102,2,122,-12,-110,4,94,-10,-110,22,88,-32,-104,40,98,-50,-120,48,112,-68,-104,84,110,-88,-104,96,86,-90,-130,114,100,-110,-92,112,84,-132,-86,104,92,-144,-66,120,40,-128,-24,120,22,-140,-14,128,12,-126,-24,108,0,-122,-4,122,4,-126,-6,112,-6,-122,10,122,-2,-144,4,112,-14,-118,20,104,-24,-108,26,106,-38,-102,42,106,-48,-98,62,102,-70,-102,68,104,-106,-108,92,120,-102,-94,76,92,-110,-90,100,82,-106,-70,122,86,-116,-52,126,36,-114,-46,120,18,-132,-42,138,6,-122,-16,126,10,-130,-8,126,0,-100,-2,132,-6,-124,24,110,-14,-124,12,96,-12,-126,18,90,-22,-96,38,102,-22,-104,30,112,-50,-104,44,106,-54,-110,70,120,-84,-102,96,116,-100,-106,102,104,-100,-86,86,84,-120,-100,118,76,-116,-68,122,82,-152,-58,124,38,-118,-30,110,20,-120,-4,116,10,-124,-10,120,4,-124,-2,104,-2,-132,2,140,-18,-116,8,132,-2,-122,8,116,-22,-120,6,102,-14,-108,12,86,-40,-98,24,98,-54,-86,64,112,-74,-108,72,94,-80,-112,96,92,-100,-102,88,94,-110,-82,108,80,-94,-78,116,66,-114,-64,124,60,-140,-44,118,52,-116,-32,136,22,-128,-14,118,-2,-114,2,116,-4,-138,2,122,10,-98,14,118,-34,-120,22,112,-16,-104,14,122,-28,-110,32,104,-32,-124,54,104,-48,-106,68,104,-74,-100,86,108,-88,-106,88,100,-98,-100,100,88,-100,-92,110,94,-118,-68,118,56,-118,-60,122,28,-124,-34,126,24,-120,-28,126,22,-126,-10,124,-2,-132,6,118,-4,-124,10,96,4,-114,6,122,-2,-128,10,106,-24,-128,4,122,-14,-110,12,114,-34,-112,30,104,-46,-106,74,110,-58,-116,80,104,-84,-96,92,104,-100,-90,98,96,-110,-94,102,80,-118,-86,106,58,-120,-68,118,50,-140,-24,132,26,-126,-26,116,8,-128,-24,124,4,-122,-20,122,0,-122,-6,110,-8,-92,0,120,-24,-98,0,110,-20,-122,22,116,-18,-124,24,108,-38,-106,40,110,-60,-106,52,102,-72,-108,84,98,-96,-116,98,98,-96,-96,116,96,-120,-94,108,88,-108,-72,110,76,-110,-62,112,70,-122,-40,120,30,-120,-20,120,2,-116,4,128,0,-134,-14,116,0,-120,0,126,-10,-120,2,140,-10,-112,-2,122,-14,-112,6,118,-16,-124,12,120,-18,-130,24,128,-46,-112,40,106,-54,-104,48,108,-60,-114,100,104,-88,-106,90,106,-118,-88,100,96,-120,-78,100,92,-104,-82,112,52,-124,-50,124,40,-148,-58,136,32,-132,-22,130,18,-112,-4,124,0,-112,-34,118,-2,-116,0,110,-12,-122,4,108,-12,-118,28,100,-16,-114,12,114,-18,-108,42,132,-24,-78,46,98,-42,-98,70,110,-74,-104,74,104,-102,-102,90,110,-100,-94,98,90,-114,-88,108,80,-110,-84,116,72,-104,-72,128,34,-130,-46,138,36,-126,-38,114,20,-138,-16,124,6,-124,-24,122,6,-126,-4,112,-4,-118,0,116,-8,-114,10,114,-16,-114,6,112,-20,-104,12,106,-34,-100,44,118,-44,-104,58,122,-80,-110,78,100,-84,-104,72,104,-98,-108,100,100,-102,-108,134,80,-124,-86,118,72,-118,-70,126,44,-114,-46,120,14,-140,-26,122,12,-120,-8,144,-14,-128,-8,130,4,-144,-2,118,6,-126,8,120,18,-108,-6,110,-6,-96,2,96,-20,-94,18,96,-28,-120,26,108,-38,-108,36,92,-34,-112,56,116,-86,-116,84,98,-92,-110,118,104,-98,-104,100,102,-108,-96,108,84,-106,-80,106,56,-110,-68,132,36,-122,-38,122,26,-130,-26,136,22,-122,-16,126,6,-116,178,76,-76,-68,82,56,-92,-26,98,28,-92,-20,96,22,-96,-10,102,18,-100,-14,108,12,-102,0,108,14,-110,0,94,2,-92,22,102,-2,-96,28,94,-28,-108,48,94,-52,-102,48,94,-48,-80,52,92,-42,-80,58,84,-56,-74,62,74,-68,-72,58,64,-68,-62,56,56,-70,-52,66,48,-66,-36,84,42,-70,-32,84,36,-76,-30,100,22,-86,-22,86,22,-100,-8,98,36,-98,-20,104,10,-104,2,110,6,-98,28,106,-20,-92,42,102,-40,-98,46,96,-42,-104,52,88,-50,-92,46,98,-50,-84,48,88,-30,-80,70,86,-48,-68,58,76,-50,-62,72,60,-56,-50,62,48,-62,-54,92,46,-66,-32,92,46,-74,-46,88,34,-88,-30,92,26,-98,-36,104,28,-96,-10,112,18,-102,8,108,6,-114,4,108,-6,-104,24,108,-26,-96,30,106,-30,-88,58,104,-38,-92,50,108,-68,-94,62,90,-52,-72,64,76,-58,-58,76,72,-64,-52,74,56,-64,-44,66,52,-62,-40,72,42,-66,-30,90,32,-86,-18,90,28,-98,-18,96,26,-96,-14,100,20,-98,-14,108,14,-88,-2,108,0,-102,6,106,-14,-98,26,100,-36,-100,32,100,-30,-100,52,96,-48,-86,52,92,-46,-90,44,90,-48,-76,54,80,-50,-66,62,60,-56,-64,58,60,-56,-44,68,54,-62,-28,74,44,-76,-34,84,44,-76,-32,88,30,-92,-30,96,24,-104,-12,96,36,-100,-20,102,14,-104,-4,116,8,-100,-12,116,-4,-100,24,108,-30,-98,40,110,-48,-96,48,100,-36,-82,60,88,-44,-88,58,90,-50,-80,58,84,-58,-78,56,86,-58,-60,70,68,-70,-50,74,52,-68,-42,82,40,-72,-30,80,28,-84,-28,88,28,-82,-22,110,30,-96,-30,94,14,-84,-12,104,10,-98,-2,94,0,-102,-4,104,-6,-102,18,102,-22,-94,46,110,-22,-100,46,96,-42,-96,50,102,-46,-88,54,84,-52,-84,62,90,-64,-70,64,78,-62,-54,70,66,-68,-44,72,44,-78,-42,68,42,-68,-40,82,28,-72,-32,84,34,-86,-40,92,26,-94,-28,106,28,-100,-14,100,14,-88,0,108,16,-96,4,104,0,-104,-4,126,2,-110,22,96,-24,-82,40,82,-56,-86,46,84,-52,-78,50,84,-44,-62,58,88,-46,-82,66,70,-56,-72,58,68,-58,-56,66,60,-54,-32,62,44,-60,-24,76,30,-58,-22,84,20,-78,-28,84,26,-82,-18,88,26,-94,-6,100,20,-88,-6,96,4,-94,0,90,0,-92,12,100,-8,-94,12,106,-20,-86,20,94,-36,-94,34,94,-42,-82,58,80,-56,-74,60,88,-48,-68,48,54,-60,-62,78,66,-64,-50,66,48,-62,-40,68,40,-66,-26,74,42,-76,-30,82,30,-76,-24,86,16,-92,-18,94,22,-82,-14,90,16,-90,-4,88,8,-88,-4,96,-4,-94,14,96,-10,-94,38,96,-34,-94,44,86,-34,-90,36,86,-44,-78,54,90,-58,-76,62,80,-60,-58,58,62,-54,-60,62,62,-54,-44,70,62,-58,-44,64,42,-56,-36,72,38,-64,-24,78,28,-86,-26,80,28,-82,-18,88,12,-86,-10,98,14,-88,-6,102,10,-84,0,100,8,-84,10,96,-6,-88,20,104,-34,-92,38,104,-32,-76,54,96,-40,-84,52,82,-38,-74,54,80,-50,-64,60,62,-54,-60,70,58,-58,-46,72,56,-60,-48,68,44,-62,-34,72,32,-74,-30,86,28,-76,-18,86,24,-90,-14,92,24,-96,-12,96,10,-100,-12,102,8,-94,-2,94,0,-90,8,90,-12,-82,10,92,-20,-88,38,92,-38,-88,52,82,-62,-90,60,88,-42,-76,58,84,-54,-74,64,68,-58,-78,60,64,-48,-52,66,56,-56,-56,68,52,-56,-46,68,50,-60,-40,78,38,-72,-24,88,30,-66,-24,74,20,-98,-18,86,20,-92,-14,104,6,-94,-4,102,4,-84,2,92,0,-90,22,94,-18,-90,32,108,-14,-92,40,98,-36,-96,42,84,-56,-84,56,78,-36,-72,60,80,-50,-62,66,74,-56,-58,62,60,-70,-52,66,48,-60,-38,66,38,-74,-50,70,20,-78,-22,72,20,-80,-28,86,20,-84,-14,100,20,-88,-16,98,10,-92,-2,100,6,-92,6,94,0,-94,6,92,0,-88,30,106,-20,-96,30,92,-28,-80,44,94,-46,-82,56,88,-38,-74,56,82,-52,-72,58,66,-54,-58,62,62,-58,-54,66,50,-60,-44,66,40,-62,-32,70,30,-68,-36,76,26,-84,-30,88,32,-84,-18,94,16,-82,-18,98,20,-92,-10,94,20,-106,0,104,2,-100,8,106,-4,-96,26,96,-24,-84,44,102,-38,-82,50,88,-48,-98,66,90,-46,-84,60,92,-46,-70,56,78,-60,-66,46,58,-54,-52,58,46,-52,-38,68,38,-62,-22,72,40,-64,-36,74,32,-72,-18,70,30,-80,-26,86,30,-84,-14,94,20,-102,-12,100,14,-92,-10,100,6,-90,0,90,2,-90,20,90,-8,-96,26,96,-34,-88,40,94,-38,-92,46,90,-40,-82,58,82,-42,-256,36,72,-88,-78,78,82,-80,-90,72,84,-86,-94,110,84,-116,-84,122,78,-124,-84,126,72,-128,-68,132,72,-142,-64,116,54,-146,-42,138,44,-130,-22,152,10,-154,20,148,-10,-150,0,142,-16,-150,8,134,-28,-136,30,132,-36,-130,34,124,-60,-116,42,124,-54,-112,60,120,-60,-108,58,102,-76,-100,70,90,-80,-94,80,94,-98,-86,100,84,-106,-82,108,82,-128,-82,114,96,-132,-76,134,64,-140,-62,134,44,-140,-30,138,16,-138,-6,142,0,-148,-2,146,-2,-154,18,138,-10,-148,16,144,-12,-150,18,136,-24,-138,36,128,-42,-130,38,126,-52,-114,44,108,-58,-106,50,106,-62,-110,84,92,-74,-94,82,104,-80,-104,92,88,-104,-86,108,90,-110,-94,118,82,-124,-78,132,64,-128,-62,122,60,-146,-56,140,40,-138,-30,138,18,-144,-20,138,-8,-148,0,144,-16,-154,16,158,-38,-136,24,132,-34,-126,38,122,-46,-126,42,118,-60,-112,60,102,-60,-104,54,110,-64,-98,68,94,-82,-98,84,86,-96,-82,102,80,-114,-88,112,80,-118,-84,114,78,-124,-76,124,72,-122,-66,138,60,-136,-50,136,32,-138,-8,142,14,-152,-16,146,-2,-152,10,132,-18,-148,14,144,-16,-146,16,134,-30,-142,26,130,-38,-120,42,112,-44,-124,52,112,-54,-108,48,106,-64,-102,70,92,-78,-90,82,94,-84,-98,96,90,-108,-92,116,84,-116,-76,110,94,-128,-78,132,68,-132,-72,144,64,-126,-58,148,38,-140,-24,142,4,-140,0,144,-6,-150,4,146,-8,-138,8,148,-26,-144,16,146,-24,-132,32,130,-44,-130,40,136,-52,-122,52,114,-58,-108,58,100,-70,-100,64,90,-74,-94,74,86,-88,-90,96,82,-106,-90,120,84,-110,-92,122,78,-112,-80,128,72,-114,-70,128,58,-142,-68,136,40,-140,-26,132,20,-142,-16,144,10,-150,6,146,-10,-152,8,146,-18,-148,20,122,-26,-148,24,132,-42,-128,40,128,-50,-112,46,124,-54,-104,54,102,-66,-102,60,94,-74,-94,80,98,-90,-92,86,94,-96,-94,104,80,-120,-94,116,76,-122,-88,120,68,-116,-78,128,72,-136,-68,136,54,-142,-66,158,30,-134,-28,134,6,-130,2,144,-6,-134,12,138,-14,-138,14,136,-28,-136,22,136,-40,-144,40,124,-48,-130,40,118,-44,-114,54,102,-54,-104,58,100,-60,-86,68,92,-74,-98,80,84,-88,-98,100,90,-98,-86,106,82,-118,-84,116,74,-110,-78,126,66,-130,-66,118,56,-138,-54,130,38,-138,-36,144,20,-144,-22,138,8,-150,2,142,-18,-136,20,132,-30,-130,22,134,-36,-128,28,116,-50,-126,54,114,-56,-112,56,92,-58,-110,66,96,-74,-100,68,100,-88,-90,72,86,-96,-84,102,80,-106,-90,102,82,-110,-84,118,78,-116,-74,116,66,-126,-72,134,52,-134,-48,134,32,-142,-16,140,8,-136,-10,140,2,-142,4,140,-18,-144,26,142,-36,-134,28,132,-40,-114,26,122,-44,-120,36,118,-54,-110,58,108,-54,-106,58,94,-62,-102,70,92,-76,-94,80,90,-100,-92,90,90,-104,-86,104,76,-116,-92,114,74,-120,-84,116,72,-122,-72,128,64,-128,-50,134,42,-134,-30,146,8,-152,-14,132,-2,-144,4,146,-6,-142,12,140,-16,-140,28,132,-32,-130,36,106,-36,-130,54,104,-44,-118,48,114,-64,-104,56,108,-66,-98,76,92,-78,-96,84,86,-86,-90,98,84,-106,-82,120,90,-116,-88,116,78,-128,-78,128,72,-124,-74,126,52,-126,-62,126,40,-136,-46,144,12,-142,-12,142,-2,-142,14,144,-18,-144,12,148,-16,-144,18,132,-32,-134,38,134,-36,-138,42,110,-46,-126,48,116,-52,-112,52,112,-62,-108,58,106,-72,-108,82,94,-88,-98,74,86,-80,-88,92,94,-108,-90,114,84,-110,-88,132,72,-122,-82,132,56,-130,-72,130,56,-136,-42,144,26,-144,-26,150,14,-150,-10,152,-2,-150,6,140,-16,-144,16,138,-8,-148,20,132,-36,-136,38,134,-38,-124,44,124,-58,-102,50,104,-56,-110,54,104,-76,-110,66,78,-74,-86,74,90,-96,-90,98,86,-98,-92,114,80,-116,-90,120,78,-120,-78,128,68,-126,-70,130,62,-136,-60,122,42,-154,-26,142,22,-148,-14,142,2,-142,6,154,-16,-150,12,140,-16,-146,22,142,-30,-128,36,128,-40,-128,42,118,-52,-114,54,110,-52,-108,64,96,-58,-100,68,96,-86,-102,84,88,-84,-102,96,84,-104,-82,104,90,-102,-90,114,84,-118,-86,118,82,-138,-66,136,64,-142,-60,136,44,-146,-34,132,22,-148,-4,150,2,-150,2,146,-14,-154,20,142,-22,-144,12,146,-30,-138,26,134,-42,-132,32,120,-36,-122,42,106,-50,-108,56,94,-60,-102,60,108,-68,-98,78,96,-80,-94,76,96,-82,-100,102,92,-110,-84,110,84,-130,-88,114,86,-120,-86,120,76,-126,-68,128,54,-128,-48,136,42,-152,-18,144,14,-144,-8,150,-2,-158,-2,144,-16,-150,16,136,cylindrical
156,-242,20,60,-44,-102,46,90,-62,-116,70,88,-88,-116,118,110,-96,-122,100,104,-108,-88,100,76,-110,-80,116,76,-128,-72,122,58,-98,-54,120,14,-108,-12,114,22,-118,-16,132,26,-126,-10,132,8,-98,-4,124,10,-110,-10,112,0,-108,10,94,-16,-94,34,112,-4,-132,10,104,-8,-110,38,102,-28,-96,46,112,-52,-124,66,112,-68,-108,82,98,-96,-56,98,100,-108,-98,112,102,-100,-84,110,60,-114,-72,138,4,-100,-46,122,32,-112,-34,118,16,-118,-18,122,6,-122,-6,88,0,-116,-22,124,18,-120,-10,108,-12,-122,0,122,-30,-124,8,110,-14,-100,2,118,-16,-102,42,102,-24,-94,38,106,-34,-132,56,118,-78,-120,78,104,-86,-108,86,94,-94,-106,106,74,-98,-94,118,84,-104,-82,112,54,-112,-52,122,36,-116,-22,144,12,-122,-18,128,26,-120,-4,108,14,-98,-12,112,20,-114,2,120,-16,-112,10,82,-8,-106,8,104,-16,-112,4,110,-4,-134,30,102,-26,-108,22,100,-32,-108,44,106,-62,-114,74,116,-82,-110,78,100,-86,-110,88,88,-84,-60,82,78,-82,-72,108,58,-124,-80,104,60,-114,-54,112,22,-114,-20,122,12,-122,-26,118,16,-118,-24,110,18,-132,-16,132,0,-122,-4,130,0,-112,-6,114,-2,-106,-8,116,-18,-122,6,104,-16,-102,14,132,-66,-90,28,98,-40,-114,56,104,-48,-104,76,108,-66,-92,90,110,-92,-94,96,90,-96,-98,96,82,-118,-92,120,72,-102,-54,102,46,-120,-60,120,32,-142,-28,122,30,-130,-4,116,0,-120,-20,112,12,-116,12,112,-14,-122,0,120,-6,-114,6,112,-10,-120,8,100,0,-122,14,106,-22,-98,22,106,-28,-98,20,112,-54,-86,50,118,-74,-114,70,124,-98,-118,94,94,-96,-96,108,80,-100,-80,100,80,-78,-74,118,58,-114,-56,108,34,-114,-40,106,18,-118,-44,124,16,-114,-20,140,2,-106,-30,112,4,-110,0,126,-16,-112,0,112,-2,-108,18,118,-26,-110,20,98,-14,-110,30,116,-30,-120,32,92,-22,-118,62,102,-52,-128,98,106,-82,-98,86,106,-90,-90,82,100,-108,-70,84,80,-100,-70,118,64,-102,-60,122,46,-120,-42,120,38,-128,-24,136,14,-112,-26,130,12,-132,-18,118,6,-122,-2,112,-16,-122,-4,126,-16,-114,-4,120,-16,-102,8,110,-8,-138,16,112,-12,-116,12,102,-28,-116,22,104,-46,-104,66,118,-86,-120,74,106,-84,-116,98,94,-106,-102,90,70,-100,-68,96,90,-116,-80,118,60,-104,-62,96,40,-122,-34,122,22,-112,-36,114,6,-104,-6,126,12,-114,-10,116,0,-104,4,104,6,-118,0,120,-4,-108,8,118,-6,-128,32,108,-22,-114,24,122,-44,-108,38,106,-52,-112,46,116,-70,-88,86,96,-84,-106,88,96,-86,-104,96,102,-106,-86,98,76,-106,-84,110,68,-106,-70,118,80,-114,-30,102,22,-126,-34,116,22,-120,-22,120,0,-130,-4,106,20,-142,-8,112,12,-120,-6,116,2,-112,-4,120,-16,-110,2,122,-22,-102,6,134,-38,-110,4,98,-28,-104,40,112,-42,-102,52,120,-52,-106,60,84,-90,-86,94,90,-90,-110,96,84,-108,-94,96,106,-120,-82,108,68,-118,-66,118,48,-130,-32,114,36,-132,-24,124,18,-118,-22,118,10,-118,-24,118,-8,-110,-28,122,6,-122,0,102,-12,-118,12,106,-12,-90,-4,146,-38,-82,36,120,-18,-104,36,98,-56,-114,52,114,-68,-86,52,120,-76,-110,90,92,-98,-102,112,98,-94,-106,116,88,-96,-74,114,62,-122,-70,126,40,-116,-36,124,8,-128,-42,130,26,-124,0,112,12,-118,-2,104,0,-112,-14,116,-2,-118,4,112,-8,-112,4,128,-28,-110,14,108,-6,-142,12,106,-14,-114,34,112,-28,-108,32,104,-44,-112,60,118,-78,-110,106,92,-86,-98,74,96,-96,-96,92,88,-90,-80,126,80,-106,-78,108,26,-108,-54,130,38,-118,-38,124,40,-128,-20,108,14,-100,-12,114,14,-118,-8,118,4,-130,-24,126,16,-120,2,108,2,-146,16,108,-8,-126,14,132,-34,-112,18,116,-18,-104,22,90,-34,-98,46,102,-58,-104,52,120,-72,-118,86,110,-96,-98,92,94,-102,-86,92,92,-108,-86,124,64,-126,-82,126,72,-116,-58,102,32,-104,-12,136,34,-134,-38,134,12,-130,0,122,16,-124,-4,114,0,-116,-2,134,-14,-116,-2,134,-20,-110,12,102,-2,-116,8,94,18,-138,20,108,-32,-106,30,118,-44,-112,54,112,-60,-112,96,116,-100,-102,92,106,-84,-106,92,90,-100,-94,118,78,-104,-80,106,68,-120,-60,110,46,-128,-48,112,30,-138,-30,118,26,-124,-14,120,4,-118,-16,126,8,-124,4,116,-2,-122,2,98,4,-96,26,98,-14,-128,4,112,-18,-104,18,96,-22,-130,36,122,-40,-122,46,98,-58,-110,50,96,-80,-102,84,98,-80,-118,92,98,-114,-102,102,80,-102,-78,124,104,-134,-70,120,50,-114,-52,226,-12,-50,26,62,-52,-38,90,50,-98,-20,110,22,-114,-12,100,18,-90,-6,92,6,-82,2,88,4,-96,4,104,0,-96,14,90,-18,-88,42,92,-54,-82,48,92,-42,-90,38,88,-42,-84,54,72,-46,-76,52,72,-50,-68,58,62,-56,-44,70,44,-72,-50,54,54,-58,-36,64,38,-66,-26,68,28,-76,-24,76,34,-84,-28,90,28,-88,-22,96,-4,-94,-6,98,12,-96,-10,90,4,-92,10,96,-4,-106,46,88,-24,-92,42,94,-32,-82,44,92,-38,-82,50,86,-50,-60,62,94,-40,-76,46,76,-46,-66,64,74,-52,-70,70,68,-62,-50,64,48,-56,-44,68,44,-68,-28,68,34,-68,-28,72,48,-70,-30,84,36,-86,-24,94,28,-92,-10,100,18,-94,0,88,12,-106,4,88,2,-92,14,96,-16,-98,24,92,-36,-106,40,94,-42,-88,46,88,-48,-76,58,72,-46,-74,44,74,-48,-76,70,74,-52,-50,68,56,-54,-46,68,58,-56,-42,56,60,-68,-44,66,36,-62,-26,72,32,-74,-26,82,20,-84,-30,100,26,-86,-16,82,22,-90,-6,86,-4,-80,2,86,-6,-88,10,102,2,-86,12,90,-14,-88,34,92,-38,-90,50,92,-38,-88,46,84,-38,-72,48,88,-34,-82,52,84,-46,-82,58,70,-44,-62,62,54,-50,-48,62,56,-60,-48,64,38,-62,-54,84,38,-72,-24,74,32,-82,-22,70,16,-86,-22,80,12,-94,-22,92,8,-94,-8,98,14,-86,-4,104,8,-98,6,88,-12,-88,24,94,-18,-96,30,102,-30,-88,34,102,-46,-78,58,90,-40,-76,58,78,-56,-76,60,82,-56,-72,60,64,-56,-58,68,60,-58,-40,54,56,-62,-34,64,42,-66,-32,66,32,-56,-24,76,20,-72,-30,78,30,-82,-30,92,34,-84,-14,94,16,-100,-2,94,-4,-86,6,82,-2,-94,14,92,-10,-82,28,94,-30,-78,44,92,-32,-88,40,90,-44,-90,50,74,-38,-74,56,76,-58,-76,64,74,-52,-60,58,58,-62,-58,72,60,-64,-38,64,42,-72,-36,66,42,-68,-22,66,30,-80,-24,76,38,-92,-24,92,16,-88,-20,94,16,-80,-4,92,0,-76,0,90,-6,-92,12,92,-12,-90,20,96,-26,-84,36,100,-32,-98,46,86,-40,-92,50,92,-42,-80,54,90,-46,-74,68,88,-52,-62,62,66,-50,-60,66,46,-60,-46,60,60,-58,-44,60,46,-54,-20,78,46,-58,-24,82,26,-82,-32,96,38,-84,-24,90,28,-94,-10,98,18,-90,10,96,0,-88,0,96,0,-92,8,90,-10,-78,28,94,-32,-94,32,84,-32,-78,48,78,-52,-84,54,82,-42,-74,52,70,-52,-66,56,70,-48,-66,62,62,-58,-52,64,64,-72,-46,70,48,-66,-48,76,34,-76,-30,80,28,-70,-28,82,20,-90,-14,94,18,-88,-10,92,14,-94,-16,106,12,-86,0,94,2,-96,6,92,-10,-90,6,96,-26,-92,38,98,-32,-82,42,92,-36,-82,58,96,-52,-78,48,94,-50,-72,50,84,-40,-74,54,62,-52,-64,68,60,-56,-58,72,50,-54,-54,76,46,-56,-32,76,32,-70,-30,72,36,-76,-30,74,24,-78,-12,92,10,-94,-10,98,20,-86,0,102,14,-84,-10,102,6,-98,10,100,-6,-92,20,108,-26,-94,26,92,-38,-88,42,84,-36,-78,54,84,-40,-68,56,74,-36,-72,50,74,-48,-60,68,68,-58,-52,70,42,-50,-66,74,28,-74,-46,72,38,-68,-26,86,32,-70,-28,82,18,-76,-28,84,22,-88,-8,96,16,-102,-6,94,20,-96,2,90,2,-92,12,98,-6,-102,24,96,-26,-92,46,100,-32,-82,46,88,-46,-80,52,82,-50,-68,52,70,-46,-66,58,76,-54,-60,66,64,-52,-58,74,52,-62,-46,64,62,-54,-32,66,38,-70,-40,68,34,-64,-20,74,28,-78,-32,86,26,-98,-18,96,14,-84,-6,88,14,-86,-4,90,0,-102,0,94,2,-90,28,96,-18,-86,32,100,-26,-88,32,96,-38,-74,44,76,-48,-76,52,86,-52,-74,50,80,-36,-76,46,74,-54,-66,52,82,-62,-56,62,64,-62,-58,72,58,-64,-38,66,36,-64,-22,76,32,-68,-22,82,30,-70,-30,74,24,-90,-28,94,16,-86,-6,102,6,-88,0,96,8,-98,8,112,6,-96,10,102,-8,-80,34,84,-40,-96,38,98,-32,-92,44,88,-44,-90,50,80,-48,-76,60,70,-52,-82,58,66,-48,-72,66,62,-60,-42,70,50,-52,-36,46,52,-54,-38,72,40,-66,-32,74,34,-74,-32,84,32,-90,-26,104,22,-92,-14,92,16,-84,-6,96,8,-96,2,94,2,-88,8,96,-18,-86,22,100,-22,-82,36,100,-36,-80,40,90,-42,-80,50,90,-44,-74,54,82,-56,-72,56,72,-50,-50,56,46,-72,-46,64,54,-54,-42,66,46,-58,-28,72,50,-68,-40,72,44,-72,-22,74,28,-72,-16,92,22,-86,-14,90,22,-80,-8,106,14,-90,-4,96,8,-100,-10,106,0,-96,22,90,-18,-92,-112,76,-112,-122,100,98,-104,-74,110,74,-104,-62,102,76,-114,-82,100,86,-108,-86,114,68,-114,-70,130,58,-134,-60,138,44,-138,-36,116,22,-142,0,132,0,-142,-6,138,-8,-142,2,134,-22,-146,8,126,-24,-142,20,128,-26,-118,26,112,-46,-106,48,98,-58,-102,48,112,-60,-98,48,94,-76,-94,72,80,-78,-96,86,100,-94,-94,92,86,-102,-80,112,56,-114,-86,116,76,-116,-82,118,64,-130,-50,136,44,-142,-14,122,22,-138,-22,124,10,-140,-4,134,-4,-142,8,140,-14,-138,4,126,-6,-134,12,136,-28,-130,34,128,-36,-124,54,120,-44,-116,48,96,-44,-112,48,92,-70,-106,58,88,-72,-98,66,94,-86,-96,100,94,-106,-92,106,86,-110,-82,108,82,-120,-70,126,66,-122,-72,122,60,-128,-50,132,42,-134,-24,134,14,-148,-2,132,-4,-146,-6,140,-16,-134,0,128,-10,-134,4,134,-40,-134,30,122,-42,-102,32,108,-48,-116,46,106,-44,-112,46,118,-64,-92,64,90,-68,-92,70,92,-76,-86,88,98,-110,-96,100,86,-98,-84,110,84,-106,-76,104,58,-112,-70,108,66,-130,-60,134,58,-122,-50,136,34,-138,-10,134,2,-140,-6,144,0,-138,6,136,-10,-140,0,146,-14,-150,22,132,-32,-138,26,124,-38,-120,36,106,-36,-120,58,120,-52,-104,56,106,-54,-116,90,74,-66,-88,76,94,-82,-88,82,92,-98,-90,96,80,-106,-82,110,78,-114,-80,108,78,-120,-64,126,62,-128,-62,124,40,-122,-36,140,40,-132,-22,150,4,-144,-10,138,-18,-142,14,136,-16,-130,0,138,-24,-134,30,132,-30,-128,34,122,-44,-118,40,112,-46,-108,46,108,-54,-110,62,94,-60,-100,62,82,-64,-100,84,74,-78,-96,102,90,-96,-100,110,84,-114,-80,118,74,-120,-64,114,64,-126,-70,110,60,-130,-54,130,36,-136,-18,132,14,-134,-4,136,16,-146,4,128,-2,-148,16,128,-12,-132,24,128,-30,-136,34,118,-36,-118,36,112,-48,-124,52,100,-56,-98,54,102,-60,-108,66,102,-74,-86,66,104,-92,-92,80,98,-114,-88,106,84,-110,-88,106,66,-104,-86,120,64,-112,-68,120,58,-136,-54,118,42,-138,-26,130,12,-142,-22,146,0,-146,4,140,-8,-150,6,150,-8,-148,6,140,-26,-138,28,118,-26,-132,38,122,-36,-118,48,108,-44,-110,46,120,-58,-108,54,98,-70,-108,60,100,-72,-98,78,94,-98,-102,104,94,-100,-90,110,88,-116,-86,122,78,-112,-76,116,58,-116,-78,128,66,-134,-50,126,36,-124,-28,146,20,-138,-6,136,4,-144,10,134,-16,-144,4,132,-18,-136,20,130,-32,-124,16,128,-34,-128,32,112,-46,-118,44,114,-64,-100,56,100,-62,-100,78,92,-74,-90,78,96,-78,-102,92,76,-104,-84,100,84,-108,-84,110,88,-120,-92,114,74,-116,-68,126,66,-124,-54,120,52,-138,-58,144,18,-130,-18,138,18,-138,-12,138,-6,-144,14,146,-16,-134,6,148,-16,-138,4,136,-30,-124,28,124,-34,-128,42,116,-42,-122,46,102,-50,-122,64,102,-58,-94,58,94,-70,-106,74,86,-80,-98,88,94,-92,-80,108,78,-114,-78,100,80,-118,-80,116,70,-116,-88,136,58,-126,-58,128,46,-138,-36,138,20,-126,-14,142,4,-144,-6,140,-4,-142,4,134,-6,-144,28,130,-14,-136,24,132,-40,-124,36,120,-50,-114,40,106,-40,-126,66,92,-70,-110,50,94,-74,-88,72,92,-82,-96,92,78,-82,-98,100,88,-112,-82,118,80,-122,-86,110,72,-128,-74,114,54,-126,-52,138,48,-138,-34,132,20,-140,-4,136,8,-152,-6,148,-22,-138,8,138,-18,-128,18,134,-20,-138,26,124,-40,-124,36,114,-50,-122,56,106,-58,-108,46,114,-62,-100,56,108,-72,-100,66,92,-76,-98,78,100,-90,-100,104,96,-122,-78,106,78,-96,-86,114,80,-118,-80,116,70,-136,-70,126,54,-130,-22,114,28,-148,-28,130,14,-140,-14,136,-4,-138,8,134,-14,-146,6,136,-14,-134,18,144,-16,-140,18,134,-34,-122,32,136,-48,-112,44,114,-54,-124,66,90,-60,-104,58,98,-66,-98,60,90,-82,-96,80,90,-80,-98,108,102,-110,-90,112,80,-120,-84,120,70,-114,-88,122,72,-140,-68,132,60,-142,-58,128,32,-126,-24,132,0,-152,-16,146,10,-146,0,152,-22,-138,4,142,-24,-128,20,134,-20,-134,32,122,-34,-134,46,108,-54,-106,28,110,-46,-98,32,118,-68,-104,68,92,-72,-102,76,96,-92,-94,86,86,-116,-92,114,76,-114,-88,102,84,-114,-80,120,74,-134,-74,122,62,-128,-52,132,46,-134,-30,142,18,-138,-8,146,4,-144,-4,144,-10,-148,18,132,-18,-146,16,140,-30,-130,26,126,-38,-116,32,112,-44,-104,40,120,-46,-118,56,98,-68,-102,62,114,-76,-110,78,100,-80,-88,88,92,-88,-88,102,84,-108,-84,100,92,-122,-88,126,88,-126,-78,122,62,-136,-78,144,48,-136,-42,140,22,cylindrical
